## EBL from Khaire & Srianand 2018; Q20 Model with alpha=-2.0 
## Column1:wavelength (Angstrom);  Column2:EBL specific intensity J_nu (erg/s/cm^2/Hz/Sr)
## ===========================================================================================
 1.000000e-08     8.702261e-37
 1.122019e-08     1.267491e-36
 1.258925e-08     1.828739e-36
 1.412538e-08     2.599938e-36
 1.584893e-08     3.634072e-36
 1.778279e-08     4.992029e-36
 1.995263e-08     6.743620e-36
 2.238721e-08     8.968759e-36
 2.511887e-08     1.175896e-35
 2.818382e-08     1.521887e-35
 3.162278e-08     1.946835e-35
 3.548135e-08     2.464466e-35
 3.981071e-08     3.090528e-35
 4.466837e-08     3.843133e-35
 5.011870e-08     4.743105e-35
 5.623413e-08     5.814480e-35
 6.309576e-08     7.084977e-35
 7.079456e-08     8.586621e-35
 7.943284e-08     1.035650e-34
 8.912505e-08     1.243744e-34
 1.000000e-07     1.487917e-34
 1.122019e-07     1.773916e-34
 1.258925e-07     2.108401e-34
 1.412538e-07     2.499104e-34
 1.584892e-07     2.954961e-34
 1.778279e-07     3.486357e-34
 1.995263e-07     4.105308e-34
 2.238721e-07     4.825741e-34
 2.511887e-07     5.663817e-34
 2.818382e-07     6.638240e-34
 3.162278e-07     7.770722e-34
 3.548136e-07     9.086398e-34
 3.981071e-07     1.061439e-33
 4.466837e-07     1.238851e-33
 5.011870e-07     1.444785e-33
 5.623413e-07     1.683782e-33
 6.309576e-07     1.961096e-33
 7.079456e-07     2.282816e-33
 7.943284e-07     2.656009e-33
 8.912505e-07     3.088847e-33
 1.000000e-06     3.590820e-33
 1.122019e-06     4.172911e-33
 1.258925e-06     4.847843e-33
 1.412538e-06     5.630387e-33
 1.584893e-06     6.537622e-33
 1.778279e-06     7.589369e-33
 1.995263e-06     8.808593e-33
 2.238721e-06     1.022188e-32
 2.511887e-06     1.186007e-32
 2.818382e-06     1.375887e-32
 3.162278e-06     1.595971e-32
 3.548136e-06     1.851056e-32
 3.981071e-06     2.146695e-32
 4.466837e-06     2.489337e-32
 5.011870e-06     2.886437e-32
 5.623413e-06     3.346655e-32
 6.309576e-06     3.880009e-32
 7.079456e-06     4.498108e-32
 7.943284e-06     5.214422e-32
 8.912505e-06     6.044532e-32
 1.000000e-05     7.006526e-32
 1.122019e-05     8.121338e-32
 1.258925e-05     9.413219e-32
 1.412538e-05     1.091032e-31
 1.584893e-05     1.264519e-31
 1.778279e-05     1.465562e-31
 1.995263e-05     1.698534e-31
 2.238721e-05     1.968504e-31
 2.511887e-05     2.281351e-31
 2.818382e-05     2.643878e-31
 3.162278e-05     3.063979e-31
 3.548135e-05     3.550791e-31
 3.981071e-05     4.114906e-31
 4.466837e-05     4.768605e-31
 5.011870e-05     5.526099e-31
 5.623413e-05     6.403886e-31
 6.309577e-05     7.421059e-31
 7.079457e-05     8.599735e-31
 7.943284e-05     9.965578e-31
 8.912505e-05     1.154829e-30
 1.000000e-04     1.338233e-30
 1.122018e-04     1.550756e-30
 1.258926e-04     1.796956e-30
 1.412538e-04     2.079565e-30
 1.584893e-04     2.404499e-30
 1.778279e-04     2.779223e-30
 1.995262e-04     3.212631e-30
 2.238722e-04     3.715171e-30
 2.511887e-04     4.299046e-30
 2.818383e-04     4.978525e-30
 3.162278e-04     5.770331e-30
 3.548134e-04     6.694110e-30
 3.981073e-04     7.773012e-30
 4.466837e-04     9.034346e-30
 5.011873e-04     1.051040e-29
 5.623413e-04     1.223939e-29
 6.309572e-04     1.426654e-29
 7.079460e-04     1.664548e-29
 7.943284e-04     1.943978e-29
 8.912510e-04     2.272492e-29
 1.000000e-03     2.659052e-29
 1.122018e-03     3.114306e-29
 1.258926e-03     3.650922e-29
 1.412538e-03     4.283951e-29
 1.584893e-03     5.031321e-29
 1.778279e-03     5.914383e-29
 1.995262e-03     6.958571e-29
 2.238722e-03     8.194202e-29
 2.511887e-03     9.657412e-29
 2.818383e-03     1.139133e-28
 3.162278e-03     1.344744e-28
 3.548133e-03     1.588716e-28
 3.981073e-03     1.878391e-28
 4.466837e-03     2.222536e-28
 5.011873e-03     2.631634e-28
 5.623413e-03     3.118228e-28
 6.309573e-03     3.697353e-28
 7.079460e-03     4.387082e-28
 7.943284e-03     5.209237e-28
 8.912510e-03     6.190353e-28
 1.000000e-02     7.362920e-28
 1.122019e-02     8.767010e-28
 1.258925e-02     1.045224e-27
 1.412538e-02     1.248024e-27
 1.584894e-02     1.492724e-27
 1.778279e-02     1.788704e-27
 1.995263e-02     2.147426e-27
 2.238721e-02     2.582734e-27
 2.511887e-02     3.111234e-27
 2.818385e-02     3.752653e-27
 3.162277e-02     4.530273e-27
 3.548136e-02     5.471491e-27
 3.981071e-02     6.608363e-27
 4.466837e-02     7.978491e-27
 5.011876e-02     9.625903e-27
 5.623413e-02     1.160229e-26
 6.309576e-02     1.396854e-26
 7.079456e-02     1.679642e-26
 7.943284e-02     2.017095e-26
 8.912515e-02     2.419283e-26
 1.000000e-01     2.898172e-26
 1.122019e-01     3.468125e-26
 1.258925e-01     4.139101e-26
 1.412538e-01     4.907192e-26
 1.584894e-01     5.764709e-26
 1.778279e-01     6.701972e-26
 1.995263e-01     7.708661e-26
 2.238721e-01     8.774674e-26
 2.511887e-01     9.890716e-26
 2.818385e-01     1.104848e-25
 3.162278e-01     1.224074e-25
 3.548135e-01     1.346135e-25
 3.981071e-01     1.470517e-25
 4.466837e-01     1.596800e-25
 5.011876e-01     1.724655e-25
 5.623413e-01     1.853828e-25
 6.309576e-01     1.984140e-25
 7.079456e-01     2.115470e-25
 7.943284e-01     2.247753e-25
 8.912515e-01     2.380963e-25
 1.000000e+00     2.515108e-25
 1.122019e+00     2.650222e-25
 1.258925e+00     2.786354e-25
 1.412538e+00     2.923569e-25
 1.584894e+00     3.061929e-25
 1.778279e+00     3.201499e-25
 1.995263e+00     3.342343e-25
 2.238721e+00     3.484517e-25
 2.511887e+00     3.628074e-25
 2.818385e+00     3.773069e-25
 3.162278e+00     3.919559e-25
 3.548136e+00     4.067623e-25
 3.981071e+00     4.217366e-25
 4.466837e+00     4.368947e-25
 5.011876e+00     4.522597e-25
 5.623413e+00     4.678656e-25
 6.309576e+00     4.836945e-25
 7.079456e+00     4.981491e-25
 7.943284e+00     5.115651e-25
 8.912516e+00     5.245933e-25
 1.000000e+01     5.379451e-25
 1.122019e+01     5.522989e-25
 1.258925e+01     5.683217e-25
 1.412538e+01     5.897406e-25
 1.584894e+01     6.192640e-25
 1.778279e+01     6.593902e-25
 1.995263e+01     7.126630e-25
 2.238721e+01     7.817550e-25
 2.511887e+01     8.694991e-25
 2.818385e+01     9.788121e-25
 3.162278e+01     1.112499e-24
 3.548135e+01     1.273000e-24
 3.981071e+01     1.462237e-24
 4.466837e+01     1.678494e-24
 5.011876e+01     1.911407e-24
 5.623413e+01     2.194785e-24
 6.309576e+01     2.511099e-24
 7.079456e+01     2.876344e-24
 7.943284e+01     3.283537e-24
 8.912515e+01     3.778808e-24
 1.000000e+02     4.367785e-24
 1.120000e+02     5.055299e-24
 1.250000e+02     5.822039e-24
 1.400000e+02     6.731425e-24
 1.550000e+02     7.634874e-24
 1.650000e+02     8.233874e-24
 1.750000e+02     8.819258e-24
 1.850000e+02     9.387773e-24
 1.900000e+02     9.673997e-24
 1.950000e+02     9.961778e-24
 2.000000e+02     1.026105e-23
 2.050000e+02     1.059199e-23
 2.100000e+02     1.099387e-23
 2.150000e+02     1.156558e-23
 2.180000e+02     1.205914e-23
 2.210000e+02     1.275318e-23
 2.240000e+02     1.369635e-23
 2.260000e+02     1.456432e-23
 2.270000e+02     1.505957e-23
 2.275000e+02     1.536631e-23
 2.278400e+02     1.558726e-23
 2.380000e+02     1.939806e-23
 2.500000e+02     2.388027e-23
 2.700000e+02     3.129371e-23
 2.900000e+02     3.861219e-23
 3.035000e+02     4.380599e-23
 3.037800e+02     5.907196e-23
 3.045000e+02     5.930951e-23
 3.060000e+02     5.984457e-23
 3.080000e+02     6.055818e-23
 3.100000e+02     6.127237e-23
 3.120000e+02     6.200511e-23
 3.150000e+02     6.308006e-23
 3.200000e+02     6.471449e-23
 3.250000e+02     6.630548e-23
 3.300000e+02     6.784942e-23
 3.400000e+02     7.114250e-23
 3.600000e+02     7.672673e-23
 3.800000e+02     8.251478e-23
 4.050000e+02     8.950843e-23
 4.250000e+02     9.567316e-23
 4.500000e+02     1.037438e-22
 4.650000e+02     1.088138e-22
 4.750000e+02     1.123010e-22
 4.820000e+02     1.147880e-22
 4.870000e+02     1.166178e-22
 4.910000e+02     1.186824e-22
 4.950000e+02     1.202278e-22
 4.980000e+02     1.215870e-22
 5.000000e+02     1.225014e-22
 5.020000e+02     1.234225e-22
 5.039800e+02     1.241703e-22
 5.100000e+02     1.267933e-22
 5.250000e+02     1.329199e-22
 5.600000e+02     1.503427e-22
 6.000000e+02     1.702331e-22
 6.500000e+02     1.973287e-22
 7.000000e+02     2.257763e-22
 7.500000e+02     2.580637e-22
 8.000000e+02     2.922507e-22
 8.300000e+02     3.147183e-22
 8.600000e+02     3.394094e-22
 8.800000e+02     3.575940e-22
 8.900000e+02     3.663599e-22
 8.960000e+02     3.717090e-22
 9.000000e+02     3.754990e-22
 9.030000e+02     3.797413e-22
 9.060000e+02     3.826314e-22
 9.090000e+02     3.855392e-22
 9.117800e+02     3.882497e-22
 9.300000e+02     5.573879e-22
 9.500000e+02     6.158165e-22
 9.750000e+02     7.927390e-22
 9.900000e+02     8.524890e-22
 1.005000e+03     9.907415e-22
 1.025000e+03     1.178768e-21
 1.045000e+03     1.382798e-21
 1.065000e+03     1.632911e-21
 1.085000e+03     1.916273e-21
 1.105000e+03     2.206473e-21
 1.125000e+03     2.537218e-21
 1.145000e+03     2.857110e-21
 1.165000e+03     3.208698e-21
 1.185000e+03     3.567996e-21
 1.205000e+03     3.924387e-21
 1.215600e+03     4.108416e-21
 1.215670e+03     4.209561e-21
 1.216000e+03     4.214592e-21
 1.218000e+03     4.244842e-21
 1.221000e+03     4.288420e-21
 1.225000e+03     4.343669e-21
 1.230000e+03     4.419565e-21
 1.240000e+03     4.601321e-21
 1.250000e+03     4.786517e-21
 1.265000e+03     5.124123e-21
 1.285000e+03     5.581559e-21
 1.305000e+03     6.064486e-21
 1.325000e+03     6.555403e-21
 1.345000e+03     7.064023e-21
 1.365000e+03     7.589079e-21
 1.385000e+03     8.111144e-21
 1.405000e+03     8.627423e-21
 1.425000e+03     9.143226e-21
 1.442000e+03     9.588182e-21
 1.455000e+03     9.937799e-21
 1.475000e+03     1.049673e-20
 1.517000e+03     1.157597e-20
 1.595000e+03     1.350453e-20
 1.672000e+03     1.543695e-20
 1.745000e+03     1.717648e-20
 1.825000e+03     1.901333e-20
 1.905000e+03     2.066718e-20
 1.984000e+03     2.217695e-20
 2.065000e+03     2.350415e-20
 2.135000e+03     2.444578e-20
 2.215000e+03     2.542026e-20
 2.295000e+03     2.633028e-20
 2.375000e+03     2.723824e-20
 2.455000e+03     2.813733e-20
 2.525000e+03     2.894446e-20
 2.605000e+03     2.987326e-20
 2.685000e+03     3.093060e-20
 2.765000e+03     3.192383e-20
 2.845000e+03     3.276951e-20
 2.950000e+03     3.407728e-20
 3.110000e+03     3.607111e-20
 3.270000e+03     3.795184e-20
 3.430000e+03     3.981327e-20
 3.590000e+03     4.161788e-20
 3.730000e+03     4.327866e-20
 3.890000e+03     4.665730e-20
 4.050000e+03     5.009021e-20
 4.210000e+03     5.568399e-20
 4.370000e+03     6.079791e-20
 4.530000e+03     6.596615e-20
 4.690000e+03     7.125645e-20
 4.850000e+03     7.610833e-20
 5.010000e+03     8.039972e-20
 5.170000e+03     8.485246e-20
 5.330000e+03     8.904917e-20
 5.490000e+03     9.323869e-20
 5.650000e+03     9.734684e-20
 5.810000e+03     1.013932e-19
 5.970000e+03     1.050739e-19
 6.130000e+03     1.086826e-19
 6.290000e+03     1.120020e-19
 6.450000e+03     1.152145e-19
 6.610000e+03     1.181559e-19
 6.770000e+03     1.211241e-19
 6.930000e+03     1.238796e-19
 7.090000e+03     1.264687e-19
 7.250000e+03     1.289255e-19
 7.410000e+03     1.312790e-19
 7.570000e+03     1.335628e-19
 7.730000e+03     1.358645e-19
 7.890000e+03     1.380399e-19
 8.050000e+03     1.401130e-19
 8.210000e+03     1.420828e-19
 8.370000e+03     1.440327e-19
 8.530000e+03     1.458364e-19
 8.690000e+03     1.476134e-19
 8.850000e+03     1.494714e-19
 9.010000e+03     1.512651e-19
 9.170000e+03     1.529917e-19
 9.330000e+03     1.547381e-19
 9.490000e+03     1.566864e-19
 9.650000e+03     1.582669e-19
 9.810000e+03     1.599843e-19
 9.970000e+03     1.616432e-19
 1.050000e+04     1.665423e-19
 1.150000e+04     1.731136e-19
 1.250000e+04     1.784167e-19
 1.350000e+04     1.824125e-19
 1.450000e+04     1.858568e-19
 1.550000e+04     1.893979e-19
 1.650000e+04     1.923787e-19
 1.750000e+04     1.936324e-19
 1.850000e+04     1.930206e-19
 1.950000e+04     1.908180e-19
 2.050000e+04     1.876695e-19
 2.150000e+04     1.839856e-19
 2.250000e+04     1.797195e-19
 2.350000e+04     1.745175e-19
 2.450000e+04     1.682128e-19
 2.550000e+04     1.623524e-19
 2.650000e+04     1.565172e-19
 2.750000e+04     1.512359e-19
 2.850000e+04     1.463093e-19
 2.950000e+04     1.415828e-19
 3.050000e+04     1.370317e-19
 3.150000e+04     1.326298e-19
 3.250000e+04     1.283481e-19
 3.350000e+04     1.241141e-19
 3.450000e+04     1.200763e-19
 3.550000e+04     1.162504e-19
 3.650000e+04     1.125648e-19
 3.750000e+04     1.090419e-19
 3.850000e+04     1.057779e-19
 3.950000e+04     1.025503e-19
 4.050000e+04     9.939718e-20
 4.150000e+04     9.631172e-20
 4.250000e+04     9.335091e-20
 4.350000e+04     9.051107e-20
 4.450000e+04     8.779169e-20
 4.550000e+04     8.516192e-20
 4.650000e+04     8.268451e-20
 4.750000e+04     8.045554e-20
 4.850000e+04     7.849757e-20
 4.950000e+04     7.677477e-20
 5.050000e+04     7.540760e-20
 5.150000e+04     7.442878e-20
 5.250000e+04     7.455194e-20
 5.350000e+04     7.600792e-20
 5.450000e+04     7.710223e-20
 5.550000e+04     7.804673e-20
 5.650000e+04     8.000571e-20
 5.750000e+04     8.287909e-20
 5.850000e+04     8.531170e-20
 5.950000e+04     8.803102e-20
 6.050000e+04     9.311455e-20
 6.150000e+04     1.018715e-19
 6.250000e+04     1.206204e-19
 6.350000e+04     1.343187e-19
 6.450000e+04     1.401036e-19
 6.550000e+04     1.420098e-19
 6.650010e+04     1.463575e-19
 6.750010e+04     1.501291e-19
 6.850010e+04     1.536706e-19
 6.950010e+04     1.594655e-19
 7.020000e+04     1.647582e-19
 7.100000e+04     1.703514e-19
 7.180000e+04     1.769464e-19
 7.260000e+04     1.841805e-19
 7.340000e+04     1.930551e-19
 7.420000e+04     2.054444e-19
 7.500000e+04     2.218421e-19
 7.580000e+04     2.411478e-19
 7.660000e+04     2.621034e-19
 7.740000e+04     2.814258e-19
 7.820000e+04     2.988795e-19
 7.900000e+04     3.137487e-19
 7.980000e+04     3.250145e-19
 8.060000e+04     3.330195e-19
 8.140000e+04     3.383904e-19
 8.220000e+04     3.422565e-19
 8.300000e+04     3.460286e-19
 8.380000e+04     3.501084e-19
 8.460000e+04     3.540750e-19
 8.540000e+04     3.585379e-19
 8.620000e+04     3.631672e-19
 8.700000e+04     3.663511e-19
 8.780000e+04     3.667435e-19
 8.860000e+04     3.646240e-19
 8.940000e+04     3.610285e-19
 9.020000e+04     3.566677e-19
 9.100000e+04     3.519870e-19
 9.180000e+04     3.471120e-19
 9.260000e+04     3.421240e-19
 9.340000e+04     3.370126e-19
 9.420000e+04     3.319703e-19
 9.500000e+04     3.271348e-19
 9.580000e+04     3.224296e-19
 9.660000e+04     3.182132e-19
 9.740000e+04     3.141242e-19
 9.820000e+04     3.095460e-19
 9.900000e+04     3.049907e-19
 9.980000e+04     3.005365e-19
 1.006000e+05     2.965021e-19
 1.020000e+05     2.899195e-19
 1.040000e+05     2.816526e-19
 1.060000e+05     2.773571e-19
 1.080000e+05     2.756013e-19
 1.100000e+05     2.750570e-19
 1.120000e+05     2.870402e-19
 1.140000e+05     3.149469e-19
 1.160000e+05     3.280372e-19
 1.180000e+05     3.281758e-19
 1.200000e+05     3.375000e-19
 1.220000e+05     3.472092e-19
 1.240000e+05     3.589252e-19
 1.260000e+05     3.735948e-19
 1.280000e+05     3.977365e-19
 1.300000e+05     4.173493e-19
 1.320000e+05     4.242900e-19
 1.340000e+05     4.246898e-19
 1.360000e+05     4.352591e-19
 1.380000e+05     4.407240e-19
 1.400000e+05     4.423823e-19
 1.420000e+05     4.513548e-19
 1.440000e+05     4.557061e-19
 1.460000e+05     4.578352e-19
 1.480000e+05     4.638171e-19
 1.500000e+05     4.674716e-19
 1.520000e+05     4.719098e-19
 1.540000e+05     4.778386e-19
 1.560000e+05     4.856508e-19
 1.580000e+05     4.930542e-19
 1.600000e+05     5.002984e-19
 1.620000e+05     5.081736e-19
 1.640000e+05     5.191874e-19
 1.660000e+05     5.340882e-19
 1.680000e+05     5.474498e-19
 1.700000e+05     5.625844e-19
 1.720000e+05     5.784391e-19
 1.740000e+05     5.930962e-19
 1.760000e+05     6.060785e-19
 1.780000e+05     6.156089e-19
 1.800000e+05     6.262462e-19
 1.820000e+05     6.368834e-19
 1.840000e+05     6.472881e-19
 1.860000e+05     6.578571e-19
 1.880000e+05     6.759753e-19
 1.900000e+05     6.887221e-19
 1.920000e+05     7.010915e-19
 1.940000e+05     7.129079e-19
 1.960000e+05     7.256180e-19
 1.980000e+05     7.393417e-19
 2.000000e+05     7.541203e-19
 2.020000e+05     7.692832e-19
 2.040000e+05     7.848193e-19
 2.060000e+05     8.013982e-19
 2.080000e+05     8.178132e-19
 2.100000e+05     8.354371e-19
 2.120000e+05     8.535571e-19
 2.140000e+05     8.718493e-19
 2.160000e+05     8.924855e-19
 2.180000e+05     9.144249e-19
 2.200000e+05     9.349722e-19
 2.220000e+05     9.570537e-19
 2.240000e+05     9.817898e-19
 2.260000e+05     1.005819e-18
 2.280000e+05     1.029537e-18
 2.300000e+05     1.055366e-18
 2.320000e+05     1.082965e-18
 2.340000e+05     1.110473e-18
 2.360000e+05     1.138179e-18
 2.380000e+05     1.167655e-18
 2.400000e+05     1.198828e-18
 2.420000e+05     1.229987e-18
 2.440000e+05     1.260659e-18
 2.460000e+05     1.293189e-18
 2.480000e+05     1.327821e-18
 2.500000e+05     1.363023e-18
 2.520000e+05     1.397865e-18
 2.540000e+05     1.433620e-18
 2.560000e+05     1.471612e-18
 2.580000e+05     1.511715e-18
 2.600000e+05     1.552737e-18
 2.620000e+05     1.593215e-18
 2.640000e+05     1.634458e-18
 2.660000e+05     1.677331e-18
 2.680000e+05     1.721758e-18
 2.700000e+05     1.766745e-18
 2.720000e+05     1.812379e-18
 2.740000e+05     1.858997e-18
 2.760000e+05     1.906876e-18
 2.780000e+05     1.956627e-18
 2.800000e+05     2.007591e-18
 2.820000e+05     2.059804e-18
 2.840000e+05     2.112572e-18
 2.860000e+05     2.164908e-18
 2.880000e+05     2.217517e-18
 2.900000e+05     2.271652e-18
 2.920000e+05     2.326758e-18
 2.940000e+05     2.383279e-18
 2.960000e+05     2.441474e-18
 2.980000e+05     2.499696e-18
 3.000000e+05     2.557702e-18
 3.020000e+05     2.617544e-18
 3.040000e+05     2.678637e-18
 3.060000e+05     2.740560e-18
 3.080000e+05     2.804028e-18
 3.100000e+05     2.867721e-18
 3.120000e+05     2.930980e-18
 3.140000e+05     2.995490e-18
 3.160000e+05     3.062824e-18
 3.180000e+05     3.130222e-18
 3.200000e+05     3.200130e-18
 3.220000e+05     3.271290e-18
 3.240000e+05     3.343368e-18
 3.260000e+05     3.417270e-18
 3.280000e+05     3.491533e-18
 3.300000e+05     3.568604e-18
 3.320000e+05     3.646259e-18
 3.340000e+05     3.731321e-18
 3.360000e+05     3.822913e-18
 3.380000e+05     3.910160e-18
 3.400000e+05     3.990542e-18
 3.420000e+05     4.071162e-18
 3.440000e+05     4.156232e-18
 3.460000e+05     4.242611e-18
 3.480000e+05     4.336500e-18
 3.500000e+05     4.437099e-18
 3.520000e+05     4.523978e-18
 3.540000e+05     4.607897e-18
 3.560000e+05     4.691208e-18
 3.580000e+05     4.771861e-18
 3.600000e+05     4.857016e-18
 3.620000e+05     4.943825e-18
 3.640000e+05     5.025013e-18
 3.660000e+05     5.108011e-18
 3.680000e+05     5.195089e-18
 3.700000e+05     5.281445e-18
 3.720000e+05     5.369496e-18
 3.740000e+05     5.458757e-18
 3.760000e+05     5.546765e-18
 3.780000e+05     5.636140e-18
 3.800000e+05     5.726252e-18
 3.820000e+05     5.819008e-18
 3.840000e+05     5.912138e-18
 3.860000e+05     6.005589e-18
 3.880000e+05     6.100763e-18
 3.900000e+05     6.196568e-18
 3.920000e+05     6.291118e-18
 4.320000e+05     8.376928e-18
 4.760000e+05     1.094708e-17
 5.250000e+05     1.401578e-17
 5.790000e+05     1.748006e-17
 6.390000e+05     2.122099e-17
 7.040000e+05     2.487128e-17
 7.760000e+05     2.814955e-17
 8.560000e+05     3.071716e-17
 9.430000e+05     3.231173e-17
 1.040000e+06     3.287262e-17
 1.147000e+06     3.240873e-17
 1.264000e+06     3.105999e-17
 1.394000e+06     2.898923e-17
 1.537000e+06     2.643462e-17
 1.694000e+06     2.361381e-17
 1.868000e+06     2.069136e-17
 2.059000e+06     1.784963e-17
 2.270000e+06     1.518301e-17
 2.503000e+06     1.276638e-17
 2.760000e+06     1.063826e-17
 3.043000e+06     8.808565e-18
 3.354000e+06     7.264290e-18
 3.698000e+06     5.969864e-18
