## EBL from Khaire & Srianand 2018; Q20 Model with alpha=-2.0 
## Column1:wavelength (Angstrom);  Column2:EBL specific intensity J_nu (erg/s/cm^2/Hz/Sr)
## ===========================================================================================
 1.000000e-08     2.226136e-37
 1.122019e-08     3.236364e-37
 1.258925e-08     4.632723e-37
 1.412538e-08     6.502938e-37
 1.584893e-08     8.951284e-37
 1.778279e-08     1.209929e-36
 1.995263e-08     1.608691e-36
 2.238721e-08     2.107433e-36
 2.511887e-08     2.724483e-36
 2.818382e-08     3.480781e-36
 3.162278e-08     4.400326e-36
 3.548135e-08     5.510628e-36
 3.981071e-08     6.843308e-36
 4.466837e-08     8.434804e-36
 5.011870e-08     1.032709e-35
 5.623413e-08     1.256870e-35
 6.309576e-08     1.521570e-35
 7.079456e-08     1.833290e-35
 7.943284e-08     2.199547e-35
 8.912505e-08     2.629033e-35
 1.000000e-07     3.131828e-35
 1.122019e-07     3.719605e-35
 1.258925e-07     4.405885e-35
 1.412538e-07     5.206366e-35
 1.584892e-07     6.139199e-35
 1.778279e-07     7.225477e-35
 1.995263e-07     8.489606e-35
 2.238721e-07     9.959871e-35
 2.511887e-07     1.166909e-34
 2.818382e-07     1.365527e-34
 3.162278e-07     1.596249e-34
 3.548136e-07     1.864181e-34
 3.981071e-07     2.175237e-34
 4.466837e-07     2.536281e-34
 5.011870e-07     2.955257e-34
 5.623413e-07     3.441383e-34
 6.309576e-07     4.005330e-34
 7.079456e-07     4.659464e-34
 7.943284e-07     5.418132e-34
 8.912505e-07     6.297932e-34
 1.000000e-06     7.318136e-34
 1.122019e-06     8.501043e-34
 1.258925e-06     9.872491e-34
 1.412538e-06     1.146247e-33
 1.584893e-06     1.330566e-33
 1.778279e-06     1.544233e-33
 1.995263e-06     1.791907e-33
 2.238721e-06     2.078990e-33
 2.511887e-06     2.411743e-33
 2.818382e-06     2.797418e-33
 3.162278e-06     3.244425e-33
 3.548136e-06     3.762503e-33
 3.981071e-06     4.362932e-33
 4.466837e-06     5.058804e-33
 5.011870e-06     5.865262e-33
 5.623413e-06     6.799882e-33
 6.309576e-06     7.883012e-33
 7.079456e-06     9.138222e-33
 7.943284e-06     1.059286e-32
 8.912505e-06     1.227857e-32
 1.000000e-05     1.423208e-32
 1.122019e-05     1.649589e-32
 1.258925e-05     1.911925e-32
 1.412538e-05     2.215931e-32
 1.584893e-05     2.568217e-32
 1.778279e-05     2.976454e-32
 1.995263e-05     3.449528e-32
 2.238721e-05     3.997726e-32
 2.511887e-05     4.632986e-32
 2.818382e-05     5.369122e-32
 3.162278e-05     6.222164e-32
 3.548135e-05     7.210665e-32
 3.981071e-05     8.356128e-32
 4.466837e-05     9.683493e-32
 5.011870e-05     1.122162e-31
 5.623413e-05     1.300400e-31
 6.309577e-05     1.506941e-31
 7.079457e-05     1.746274e-31
 7.943284e-05     2.023613e-31
 8.912505e-05     2.344987e-31
 1.000000e-04     2.717392e-31
 1.122018e-04     3.148925e-31
 1.258926e-04     3.648409e-31
 1.412538e-04     4.216268e-31
 1.584893e-04     4.869686e-31
 1.778279e-04     5.626049e-31
 1.995262e-04     6.504241e-31
 2.238722e-04     7.525710e-31
 2.511887e-04     8.715334e-31
 2.818383e-04     1.010230e-30
 3.162278e-04     1.172097e-30
 3.548134e-04     1.361190e-30
 3.981073e-04     1.582300e-30
 4.466837e-04     1.841094e-30
 5.011873e-04     2.144281e-30
 5.623413e-04     2.499807e-30
 6.309572e-04     2.917093e-30
 7.079460e-04     3.407313e-30
 7.943284e-04     3.983725e-30
 8.912510e-04     4.662083e-30
 1.000000e-03     5.461103e-30
 1.122018e-03     6.403039e-30
 1.258926e-03     7.514383e-30
 1.412538e-03     8.826633e-30
 1.584893e-03     1.037733e-29
 1.778279e-03     1.221120e-29
 1.995262e-03     1.438156e-29
 2.238722e-03     1.695199e-29
 2.511887e-03     1.999832e-29
 2.818383e-03     2.361109e-29
 3.162278e-03     2.789840e-29
 3.548133e-03     3.298935e-29
 3.981073e-03     3.903825e-29
 4.466837e-03     4.622944e-29
 5.011873e-03     5.478352e-29
 5.623413e-03     6.496471e-29
 6.309573e-03     7.709029e-29
 7.079460e-03     9.154300e-29
 7.943284e-03     1.087874e-28
 8.912510e-03     1.293923e-28
 1.000000e-02     1.540598e-28
 1.122019e-02     1.836625e-28
 1.258925e-02     2.192860e-28
 1.412538e-02     2.622809e-28
 1.584894e-02     3.143128e-28
 1.778279e-02     3.774191e-28
 1.995263e-02     4.540668e-28
 2.238721e-02     5.472054e-28
 2.511887e-02     6.603363e-28
 2.818385e-02     7.975794e-28
 3.162277e-02     9.637604e-28
 3.548136e-02     1.164527e-27
 3.981071e-02     1.406470e-27
 4.466837e-02     1.697312e-27
 5.011876e-02     2.046109e-27
 5.623413e-02     2.463513e-27
 6.309576e-02     2.962116e-27
 7.079456e-02     3.556799e-27
 7.943284e-02     4.265248e-27
 8.912515e-02     5.108471e-27
 1.000000e-01     6.111474e-27
 1.122019e-01     7.304972e-27
 1.258925e-01     8.689552e-27
 1.412538e-01     1.022521e-26
 1.584894e-01     1.188464e-26
 1.778279e-01     1.364749e-26
 1.995263e-01     1.549732e-26
 2.238721e-01     1.742003e-26
 2.511887e-01     1.940339e-26
 2.818385e-01     2.143678e-26
 3.162278e-01     2.351110e-26
 3.548135e-01     2.561884e-26
 3.981071e-01     2.775388e-26
 4.466837e-01     2.991157e-26
 5.011876e-01     3.208843e-26
 5.623413e-01     3.428212e-26
 6.309576e-01     3.649119e-26
 7.079456e-01     3.871507e-26
 7.943284e-01     4.095386e-26
 8.912515e-01     4.320802e-26
 1.000000e+00     4.547834e-26
 1.122019e+00     4.776581e-26
 1.258925e+00     5.007138e-26
 1.412538e+00     5.239604e-26
 1.584894e+00     5.474041e-26
 1.778279e+00     5.710484e-26
 1.995263e+00     5.948928e-26
 2.238721e+00     6.189291e-26
 2.511887e+00     6.431418e-26
 2.818385e+00     6.675038e-26
 3.162278e+00     6.919730e-26
 3.548136e+00     7.164868e-26
 3.981071e+00     7.409515e-26
 4.466837e+00     7.652325e-26
 5.011876e+00     7.891334e-26
 5.623413e+00     8.123731e-26
 6.309576e+00     8.340241e-26
 7.079456e+00     8.474138e-26
 7.943284e+00     8.562572e-26
 8.912516e+00     8.620449e-26
 1.000000e+01     8.647111e-26
 1.122019e+01     8.631036e-26
 1.258925e+01     8.594001e-26
 1.412538e+01     8.633853e-26
 1.584894e+01     8.617335e-26
 1.778279e+01     8.759119e-26
 1.995263e+01     8.890457e-26
 2.238721e+01     9.010162e-26
 2.511887e+01     9.100952e-26
 2.818385e+01     9.106918e-26
 3.162278e+01     9.038842e-26
 3.548135e+01     8.874006e-26
 3.981071e+01     8.607486e-26
 4.466837e+01     8.249077e-26
 5.011876e+01     7.828844e-26
 5.623413e+01     7.370035e-26
 6.309576e+01     6.900396e-26
 7.079456e+01     6.442641e-26
 7.943284e+01     6.017513e-26
 8.912515e+01     5.640116e-26
 1.000000e+02     5.316511e-26
 1.120000e+02     5.054985e-26
 1.250000e+02     4.852869e-26
 1.400000e+02     4.694550e-26
 1.550000e+02     4.593302e-26
 1.650000e+02     4.549015e-26
 1.750000e+02     4.521331e-26
 1.850000e+02     4.512178e-26
 1.900000e+02     4.527746e-26
 1.950000e+02     4.578760e-26
 2.000000e+02     4.705351e-26
 2.050000e+02     4.997906e-26
 2.100000e+02     5.641043e-26
 2.150000e+02     6.996460e-26
 2.180000e+02     8.413474e-26
 2.210000e+02     1.056028e-25
 2.240000e+02     1.376796e-25
 2.260000e+02     1.672739e-25
 2.270000e+02     1.851412e-25
 2.275000e+02     1.949560e-25
 2.278400e+02     2.019968e-25
 2.380000e+02     1.099664e-23
 2.500000e+02     2.497330e-23
 2.700000e+02     4.020299e-23
 2.900000e+02     5.039617e-23
 3.035000e+02     5.564162e-23
 3.037800e+02     7.469103e-23
 3.045000e+02     7.398494e-23
 3.060000e+02     7.283665e-23
 3.080000e+02     7.155156e-23
 3.100000e+02     7.041795e-23
 3.120000e+02     6.947968e-23
 3.150000e+02     6.838491e-23
 3.200000e+02     6.718648e-23
 3.250000e+02     6.663822e-23
 3.300000e+02     6.665158e-23
 3.400000e+02     6.768638e-23
 3.600000e+02     7.172022e-23
 3.800000e+02     7.668036e-23
 4.050000e+02     8.304490e-23
 4.250000e+02     8.817791e-23
 4.500000e+02     9.459812e-23
 4.650000e+02     9.849039e-23
 4.750000e+02     1.010928e-22
 4.820000e+02     1.028871e-22
 4.870000e+02     1.041822e-22
 4.910000e+02     1.051751e-22
 4.950000e+02     1.062281e-22
 4.980000e+02     1.069836e-22
 5.000000e+02     1.075419e-22
 5.020000e+02     1.080389e-22
 5.039800e+02     1.085210e-22
 5.100000e+02     1.139208e-22
 5.250000e+02     1.246844e-22
 5.600000e+02     1.417075e-22
 6.000000e+02     1.568881e-22
 6.500000e+02     1.741322e-22
 7.000000e+02     1.927475e-22
 7.500000e+02     2.151516e-22
 8.000000e+02     2.439040e-22
 8.300000e+02     2.649618e-22
 8.600000e+02     2.901647e-22
 8.800000e+02     3.094059e-22
 8.900000e+02     3.200223e-22
 8.960000e+02     3.265648e-22
 9.000000e+02     3.311200e-22
 9.030000e+02     3.346621e-22
 9.060000e+02     3.381175e-22
 9.090000e+02     3.417463e-22
 9.117800e+02     3.451704e-22
 9.300000e+02     8.226505e-22
 9.500000e+02     1.494823e-21
 9.750000e+02     2.664929e-21
 9.900000e+02     3.234586e-21
 1.005000e+03     3.916728e-21
 1.025000e+03     5.086587e-21
 1.045000e+03     6.104752e-21
 1.065000e+03     7.505032e-21
 1.085000e+03     8.917789e-21
 1.105000e+03     1.030023e-20
 1.125000e+03     1.178259e-20
 1.145000e+03     1.310164e-20
 1.165000e+03     1.459288e-20
 1.185000e+03     1.586496e-20
 1.205000e+03     1.712686e-20
 1.215600e+03     1.772947e-20
 1.215670e+03     1.895773e-20
 1.216000e+03     1.897290e-20
 1.218000e+03     1.905699e-20
 1.221000e+03     1.916514e-20
 1.225000e+03     1.930560e-20
 1.230000e+03     1.952082e-20
 1.240000e+03     2.008274e-20
 1.250000e+03     2.064038e-20
 1.265000e+03     2.177722e-20
 1.285000e+03     2.313557e-20
 1.305000e+03     2.462649e-20
 1.325000e+03     2.598320e-20
 1.345000e+03     2.742572e-20
 1.365000e+03     2.867356e-20
 1.385000e+03     2.999897e-20
 1.405000e+03     3.122686e-20
 1.425000e+03     3.237231e-20
 1.442000e+03     3.335231e-20
 1.455000e+03     3.405640e-20
 1.475000e+03     3.523584e-20
 1.517000e+03     3.731300e-20
 1.595000e+03     4.037118e-20
 1.672000e+03     4.301271e-20
 1.745000e+03     4.524481e-20
 1.825000e+03     4.737084e-20
 1.905000e+03     4.888481e-20
 1.984000e+03     5.015226e-20
 2.065000e+03     5.101430e-20
 2.135000e+03     5.155718e-20
 2.215000e+03     5.193446e-20
 2.295000e+03     5.227903e-20
 2.375000e+03     5.257585e-20
 2.455000e+03     5.296010e-20
 2.525000e+03     5.327062e-20
 2.605000e+03     5.368146e-20
 2.685000e+03     5.438095e-20
 2.765000e+03     5.482184e-20
 2.845000e+03     5.507912e-20
 2.950000e+03     5.565311e-20
 3.110000e+03     5.646255e-20
 3.270000e+03     5.705205e-20
 3.430000e+03     5.748875e-20
 3.590000e+03     5.784895e-20
 3.730000e+03     5.860454e-20
 3.890000e+03     6.214554e-20
 4.050000e+03     6.602884e-20
 4.210000e+03     7.155666e-20
 4.370000e+03     7.615113e-20
 4.530000e+03     8.042277e-20
 4.690000e+03     8.434253e-20
 4.850000e+03     8.711797e-20
 5.010000e+03     8.970849e-20
 5.170000e+03     9.193428e-20
 5.330000e+03     9.402590e-20
 5.490000e+03     9.591261e-20
 5.650000e+03     9.770525e-20
 5.810000e+03     9.946773e-20
 5.970000e+03     1.008097e-19
 6.130000e+03     1.021686e-19
 6.290000e+03     1.033485e-19
 6.450000e+03     1.043911e-19
 6.610000e+03     1.053286e-19
 6.770000e+03     1.063157e-19
 6.930000e+03     1.071718e-19
 7.090000e+03     1.079043e-19
 7.250000e+03     1.085685e-19
 7.410000e+03     1.092060e-19
 7.570000e+03     1.098723e-19
 7.730000e+03     1.106014e-19
 7.890000e+03     1.112709e-19
 8.050000e+03     1.118543e-19
 8.210000e+03     1.124501e-19
 8.370000e+03     1.130177e-19
 8.530000e+03     1.135410e-19
 8.690000e+03     1.140971e-19
 8.850000e+03     1.148407e-19
 9.010000e+03     1.155168e-19
 9.170000e+03     1.161451e-19
 9.330000e+03     1.169799e-19
 9.490000e+03     1.178107e-19
 9.650000e+03     1.184843e-19
 9.810000e+03     1.192021e-19
 9.970000e+03     1.199093e-19
 1.050000e+04     1.216071e-19
 1.150000e+04     1.230768e-19
 1.250000e+04     1.237765e-19
 1.350000e+04     1.240947e-19
 1.450000e+04     1.245055e-19
 1.550000e+04     1.257109e-19
 1.650000e+04     1.264771e-19
 1.750000e+04     1.259041e-19
 1.850000e+04     1.239572e-19
 1.950000e+04     1.209013e-19
 2.050000e+04     1.175702e-19
 2.150000e+04     1.140069e-19
 2.250000e+04     1.101212e-19
 2.350000e+04     1.052563e-19
 2.450000e+04     9.982417e-20
 2.550000e+04     9.526572e-20
 2.650000e+04     9.099067e-20
 2.750000e+04     8.751222e-20
 2.850000e+04     8.445124e-20
 2.950000e+04     8.171567e-20
 3.050000e+04     7.924640e-20
 3.150000e+04     7.700932e-20
 3.250000e+04     7.495657e-20
 3.350000e+04     7.306376e-20
 3.450000e+04     7.133024e-20
 3.550000e+04     6.976774e-20
 3.650000e+04     6.843180e-20
 3.750000e+04     6.720686e-20
 3.850000e+04     6.601872e-20
 3.950000e+04     6.507643e-20
 4.050000e+04     6.446377e-20
 4.150000e+04     6.399779e-20
 4.250000e+04     6.361916e-20
 4.350000e+04     6.317634e-20
 4.450000e+04     6.264570e-20
 4.550000e+04     6.213517e-20
 4.650000e+04     6.178020e-20
 4.750000e+04     6.167783e-20
 4.850000e+04     6.185857e-20
 4.950000e+04     6.233105e-20
 5.050000e+04     6.310595e-20
 5.150000e+04     6.419543e-20
 5.250000e+04     6.590130e-20
 5.350000e+04     6.836786e-20
 5.450000e+04     7.043121e-20
 5.550000e+04     7.240682e-20
 5.650000e+04     7.521545e-20
 5.750000e+04     7.820531e-20
 5.850000e+04     8.031490e-20
 5.950000e+04     8.200004e-20
 6.050000e+04     8.498296e-20
 6.150000e+04     9.094995e-20
 6.250000e+04     1.047855e-19
 6.350000e+04     1.149485e-19
 6.450000e+04     1.202645e-19
 6.550000e+04     1.248876e-19
 6.650010e+04     1.294310e-19
 6.750010e+04     1.340226e-19
 6.850010e+04     1.379751e-19
 6.950010e+04     1.425870e-19
 7.020000e+04     1.468999e-19
 7.100000e+04     1.511202e-19
 7.180000e+04     1.552260e-19
 7.260000e+04     1.595746e-19
 7.340000e+04     1.650769e-19
 7.420000e+04     1.729925e-19
 7.500000e+04     1.838742e-19
 7.580000e+04     1.974580e-19
 7.660000e+04     2.127658e-19
 7.740000e+04     2.275249e-19
 7.820000e+04     2.416415e-19
 7.900000e+04     2.543305e-19
 7.980000e+04     2.644858e-19
 8.060000e+04     2.720822e-19
 8.140000e+04     2.773824e-19
 8.220000e+04     2.815778e-19
 8.300000e+04     2.850914e-19
 8.380000e+04     2.884606e-19
 8.460000e+04     2.920833e-19
 8.540000e+04     2.964369e-19
 8.620000e+04     3.013086e-19
 8.700000e+04     3.055502e-19
 8.780000e+04     3.081013e-19
 8.860000e+04     3.091598e-19
 8.940000e+04     3.095291e-19
 9.020000e+04     3.092476e-19
 9.100000e+04     3.084992e-19
 9.180000e+04     3.076714e-19
 9.260000e+04     3.066582e-19
 9.340000e+04     3.054019e-19
 9.420000e+04     3.041288e-19
 9.500000e+04     3.027921e-19
 9.580000e+04     3.013563e-19
 9.660000e+04     3.000926e-19
 9.740000e+04     2.986880e-19
 9.820000e+04     2.965547e-19
 9.900000e+04     2.937894e-19
 9.980000e+04     2.907749e-19
 1.006000e+05     2.875367e-19
 1.020000e+05     2.818011e-19
 1.040000e+05     2.738867e-19
 1.060000e+05     2.687452e-19
 1.080000e+05     2.654720e-19
 1.100000e+05     2.629895e-19
 1.120000e+05     2.669281e-19
 1.140000e+05     2.800574e-19
 1.160000e+05     2.817896e-19
 1.180000e+05     2.819498e-19
 1.200000e+05     2.845336e-19
 1.220000e+05     2.894474e-19
 1.240000e+05     2.969431e-19
 1.260000e+05     3.079110e-19
 1.280000e+05     3.283542e-19
 1.300000e+05     3.489064e-19
 1.320000e+05     3.536085e-19
 1.340000e+05     3.628143e-19
 1.360000e+05     3.708873e-19
 1.380000e+05     3.790021e-19
 1.400000e+05     3.863699e-19
 1.420000e+05     3.939505e-19
 1.440000e+05     4.007829e-19
 1.460000e+05     4.066333e-19
 1.480000e+05     4.123692e-19
 1.500000e+05     4.180908e-19
 1.520000e+05     4.238105e-19
 1.540000e+05     4.295923e-19
 1.560000e+05     4.373022e-19
 1.580000e+05     4.433480e-19
 1.600000e+05     4.461942e-19
 1.620000e+05     4.489419e-19
 1.640000e+05     4.522587e-19
 1.660000e+05     4.578512e-19
 1.680000e+05     4.619097e-19
 1.700000e+05     4.681257e-19
 1.720000e+05     4.765987e-19
 1.740000e+05     4.821840e-19
 1.760000e+05     4.877204e-19
 1.780000e+05     4.915322e-19
 1.800000e+05     4.960065e-19
 1.820000e+05     4.994031e-19
 1.840000e+05     5.034351e-19
 1.860000e+05     5.082230e-19
 1.880000e+05     5.181236e-19
 1.900000e+05     5.254885e-19
 1.920000e+05     5.332427e-19
 1.940000e+05     5.424777e-19
 1.960000e+05     5.529576e-19
 1.980000e+05     5.651195e-19
 2.000000e+05     5.777444e-19
 2.020000e+05     5.917811e-19
 2.040000e+05     6.066997e-19
 2.060000e+05     6.215456e-19
 2.080000e+05     6.363324e-19
 2.100000e+05     6.531145e-19
 2.120000e+05     6.695901e-19
 2.140000e+05     6.861065e-19
 2.160000e+05     7.045460e-19
 2.180000e+05     7.238915e-19
 2.200000e+05     7.419368e-19
 2.220000e+05     7.609041e-19
 2.240000e+05     7.817284e-19
 2.260000e+05     8.022527e-19
 2.280000e+05     8.223092e-19
 2.300000e+05     8.441974e-19
 2.320000e+05     8.679511e-19
 2.340000e+05     8.921597e-19
 2.360000e+05     9.162500e-19
 2.380000e+05     9.417118e-19
 2.400000e+05     9.689196e-19
 2.420000e+05     9.966074e-19
 2.440000e+05     1.023958e-18
 2.460000e+05     1.052317e-18
 2.480000e+05     1.082306e-18
 2.500000e+05     1.112775e-18
 2.520000e+05     1.142922e-18
 2.540000e+05     1.173671e-18
 2.560000e+05     1.206131e-18
 2.580000e+05     1.240345e-18
 2.600000e+05     1.275365e-18
 2.620000e+05     1.310090e-18
 2.640000e+05     1.344784e-18
 2.660000e+05     1.380532e-18
 2.680000e+05     1.418107e-18
 2.700000e+05     1.455787e-18
 2.720000e+05     1.493248e-18
 2.740000e+05     1.530949e-18
 2.760000e+05     1.570166e-18
 2.780000e+05     1.611613e-18
 2.800000e+05     1.655185e-18
 2.820000e+05     1.700521e-18
 2.840000e+05     1.745742e-18
 2.860000e+05     1.790508e-18
 2.880000e+05     1.835915e-18
 2.900000e+05     1.883663e-18
 2.920000e+05     1.932434e-18
 2.940000e+05     1.981812e-18
 2.960000e+05     2.032588e-18
 2.980000e+05     2.083706e-18
 3.000000e+05     2.133969e-18
 3.020000e+05     2.185889e-18
 3.040000e+05     2.239319e-18
 3.060000e+05     2.292793e-18
 3.080000e+05     2.346827e-18
 3.100000e+05     2.401209e-18
 3.120000e+05     2.454892e-18
 3.140000e+05     2.510245e-18
 3.160000e+05     2.567053e-18
 3.180000e+05     2.624678e-18
 3.200000e+05     2.684288e-18
 3.220000e+05     2.744179e-18
 3.240000e+05     2.804669e-18
 3.260000e+05     2.867230e-18
 3.280000e+05     2.928469e-18
 3.300000e+05     2.990599e-18
 3.320000e+05     3.052208e-18
 3.340000e+05     3.122116e-18
 3.360000e+05     3.198360e-18
 3.380000e+05     3.268473e-18
 3.400000e+05     3.328271e-18
 3.420000e+05     3.390189e-18
 3.440000e+05     3.452672e-18
 3.460000e+05     3.514748e-18
 3.480000e+05     3.589829e-18
 3.500000e+05     3.671642e-18
 3.520000e+05     3.747507e-18
 3.540000e+05     3.815927e-18
 3.560000e+05     3.876470e-18
 3.580000e+05     3.936614e-18
 3.600000e+05     4.003205e-18
 3.620000e+05     4.068222e-18
 3.640000e+05     4.130139e-18
 3.660000e+05     4.194082e-18
 3.680000e+05     4.259743e-18
 3.700000e+05     4.324716e-18
 3.720000e+05     4.390644e-18
 3.740000e+05     4.458389e-18
 3.760000e+05     4.526250e-18
 3.780000e+05     4.594418e-18
 3.800000e+05     4.664306e-18
 3.820000e+05     4.735569e-18
 3.840000e+05     4.806994e-18
 3.860000e+05     4.879185e-18
 3.880000e+05     4.952654e-18
 3.900000e+05     5.026744e-18
 3.920000e+05     5.101139e-18
 4.320000e+05     6.633940e-18
 4.760000e+05     8.379999e-18
 5.250000e+05     1.029790e-17
 5.790000e+05     1.227288e-17
 6.390000e+05     1.421645e-17
 7.040000e+05     1.588165e-17
 7.760000e+05     1.713407e-17
 8.560000e+05     1.789048e-17
 9.430000e+05     1.814547e-17
 1.040000e+06     1.798133e-17
 1.147000e+06     1.749965e-17
 1.264000e+06     1.681422e-17
 1.394000e+06     1.601143e-17
 1.537000e+06     1.516195e-17
 1.694000e+06     1.429392e-17
 1.868000e+06     1.340451e-17
 2.059000e+06     1.248718e-17
 2.270000e+06     1.152044e-17
 2.503000e+06     1.049606e-17
 2.760000e+06     9.419985e-18
 3.043000e+06     8.313574e-18
 3.354000e+06     7.208330e-18
 3.698000e+06     6.131171e-18
