## EBL from Khaire & Srianand 2018; Q20 Model with alpha=-2.0 
## Column1:wavelength (Angstrom);  Column2:EBL specific intensity J_nu (erg/s/cm^2/Hz/Sr)
## ===========================================================================================
 1.000000e-08     1.155868e-37
 1.122019e-08     1.680129e-37
 1.258925e-08     2.403338e-37
 1.412538e-08     3.370095e-37
 1.584893e-08     4.633687e-37
 1.778279e-08     6.256276e-37
 1.995263e-08     8.309427e-37
 2.238721e-08     1.087503e-36
 2.511887e-08     1.404674e-36
 2.818382e-08     1.793159e-36
 3.162278e-08     2.265222e-36
 3.548135e-08     2.834924e-36
 3.981071e-08     3.518428e-36
 4.466837e-08     4.334367e-36
 5.011870e-08     5.304199e-36
 5.623413e-08     6.452747e-36
 6.309576e-08     7.808678e-36
 7.079456e-08     9.405153e-36
 7.943284e-08     1.128061e-35
 8.912505e-08     1.347950e-35
 1.000000e-07     1.605340e-35
 1.122019e-07     1.906200e-35
 1.258925e-07     2.257448e-35
 1.412538e-07     2.667113e-35
 1.584892e-07     3.144480e-35
 1.778279e-07     3.700338e-35
 1.995263e-07     4.347171e-35
 2.238721e-07     5.099449e-35
 2.511887e-07     5.973961e-35
 2.818382e-07     6.990140e-35
 3.162278e-07     8.170542e-35
 3.548136e-07     9.541281e-35
 3.981071e-07     1.113261e-34
 4.466837e-07     1.297965e-34
 5.011870e-07     1.512301e-34
 5.623413e-07     1.760986e-34
 6.309576e-07     2.049480e-34
 7.079456e-07     2.384105e-34
 7.943284e-07     2.772201e-34
 8.912505e-07     3.222260e-34
 1.000000e-06     3.744138e-34
 1.122019e-06     4.349241e-34
 1.258925e-06     5.050787e-34
 1.412538e-06     5.864116e-34
 1.584893e-06     6.806968e-34
 1.778279e-06     7.899933e-34
 1.995263e-06     9.166861e-34
 2.238721e-06     1.063537e-33
 2.511887e-06     1.233748e-33
 2.818382e-06     1.431031e-33
 3.162278e-06     1.659686e-33
 3.548136e-06     1.924694e-33
 3.981071e-06     2.231827e-33
 4.466837e-06     2.587780e-33
 5.011870e-06     3.000299e-33
 5.623413e-06     3.478377e-33
 6.309576e-06     4.032419e-33
 7.079456e-06     4.674482e-33
 7.943284e-06     5.418557e-33
 8.912505e-06     6.280827e-33
 1.000000e-05     7.280081e-33
 1.122019e-05     8.438059e-33
 1.258925e-05     9.779952e-33
 1.412538e-05     1.133500e-32
 1.584893e-05     1.313700e-32
 1.778279e-05     1.522521e-32
 1.995263e-05     1.764505e-32
 2.238721e-05     2.044918e-32
 2.511887e-05     2.369864e-32
 2.818382e-05     2.746409e-32
 3.162278e-05     3.182754e-32
 3.548135e-05     3.688388e-32
 3.981071e-05     4.274310e-32
 4.466837e-05     4.953279e-32
 5.011870e-05     5.740054e-32
 5.623413e-05     6.651770e-32
 6.309577e-05     7.708258e-32
 7.079457e-05     8.932488e-32
 7.943284e-05     1.035112e-31
 8.912505e-05     1.199499e-31
 1.000000e-04     1.389991e-31
 1.122018e-04     1.610726e-31
 1.258926e-04     1.866179e-31
 1.412538e-04     2.156364e-31
 1.584893e-04     2.490386e-31
 1.778279e-04     2.877188e-31
 1.995262e-04     3.326414e-31
 2.238722e-04     3.849021e-31
 2.511887e-04     4.457732e-31
 2.818383e-04     5.167481e-31
 3.162278e-04     5.995867e-31
 3.548134e-04     6.963654e-31
 3.981073e-04     8.095391e-31
 4.466837e-04     9.420101e-31
 5.011873e-04     1.097216e-30
 5.623413e-04     1.279227e-30
 6.309572e-04     1.492870e-30
 7.079460e-04     1.743871e-30
 7.943284e-04     2.039024e-30
 8.912510e-04     2.386399e-30
 1.000000e-03     2.795589e-30
 1.122018e-03     3.277998e-30
 1.258926e-03     3.847204e-30
 1.412538e-03     4.519349e-30
 1.584893e-03     5.313671e-30
 1.778279e-03     6.253101e-30
 1.995262e-03     7.364959e-30
 2.238722e-03     8.681842e-30
 2.511887e-03     1.024261e-29
 2.818383e-03     1.209369e-29
 3.162278e-03     1.429048e-29
 3.548133e-03     1.689919e-29
 3.981073e-03     1.999888e-29
 4.466837e-03     2.368409e-29
 5.011873e-03     2.806791e-29
 5.623413e-03     3.328582e-29
 6.309573e-03     3.950051e-29
 7.079460e-03     4.690831e-29
 7.943284e-03     5.574761e-29
 8.912510e-03     6.631049e-29
 1.000000e-02     7.895765e-29
 1.122019e-02     9.413748e-29
 1.258925e-02     1.124081e-28
 1.412538e-02     1.344638e-28
 1.584894e-02     1.611603e-28
 1.778279e-02     1.935444e-28
 1.995263e-02     2.328818e-28
 2.238721e-02     2.806853e-28
 2.511887e-02     3.387494e-28
 2.818385e-02     4.091847e-28
 3.162277e-02     4.944614e-28
 3.548136e-02     5.974709e-28
 3.981071e-02     7.215859e-28
 4.466837e-02     8.707605e-28
 5.011876e-02     1.049630e-27
 5.623413e-02     1.263649e-27
 6.309576e-02     1.519267e-27
 7.079456e-02     1.824107e-27
 7.943284e-02     2.187231e-27
 8.912515e-02     2.619403e-27
 1.000000e-01     3.133442e-27
 1.122019e-01     3.745132e-27
 1.258925e-01     4.453627e-27
 1.412538e-01     5.237313e-27
 1.584894e-01     6.082264e-27
 1.778279e-01     6.978381e-27
 1.995263e-01     7.917567e-27
 2.238721e-01     8.892858e-27
 2.511887e-01     9.898204e-27
 2.818385e-01     1.092832e-26
 3.162278e-01     1.197870e-26
 3.548135e-01     1.304561e-26
 3.981071e-01     1.412603e-26
 4.466837e-01     1.521768e-26
 5.011876e-01     1.631886e-26
 5.623413e-01     1.742844e-26
 6.309576e-01     1.854558e-26
 7.079456e-01     1.967017e-26
 7.943284e-01     2.080225e-26
 8.912515e-01     2.194205e-26
 1.000000e+00     2.308990e-26
 1.122019e+00     2.424623e-26
 1.258925e+00     2.541142e-26
 1.412538e+00     2.658577e-26
 1.584894e+00     2.776930e-26
 1.778279e+00     2.896172e-26
 1.995263e+00     3.016234e-26
 2.238721e+00     3.136972e-26
 2.511887e+00     3.258153e-26
 2.818385e+00     3.379411e-26
 3.162278e+00     3.500192e-26
 3.548136e+00     3.619674e-26
 3.981071e+00     3.736649e-26
 4.466837e+00     3.849379e-26
 5.011876e+00     3.955381e-26
 5.623413e+00     4.051199e-26
 6.309576e+00     4.128700e-26
 7.079456e+00     4.149968e-26
 7.943284e+00     4.130443e-26
 8.912516e+00     4.080612e-26
 1.000000e+01     3.987642e-26
 1.122019e+01     3.835567e-26
 1.258925e+01     3.729696e-26
 1.412538e+01     3.566941e-26
 1.584894e+01     3.431568e-26
 1.778279e+01     3.272328e-26
 1.995263e+01     3.109877e-26
 2.238721e+01     2.934779e-26
 2.511887e+01     2.740517e-26
 2.818385e+01     2.533324e-26
 3.162278e+01     2.317358e-26
 3.548135e+01     2.101211e-26
 3.981071e+01     1.890351e-26
 4.466837e+01     1.690615e-26
 5.011876e+01     1.506702e-26
 5.623413e+01     1.342063e-26
 6.309576e+01     1.198618e-26
 7.079456e+01     1.075660e-26
 7.943284e+01     9.709577e-27
 8.912515e+01     8.829670e-27
 1.000000e+02     8.091530e-27
 1.120000e+02     7.487263e-27
 1.250000e+02     7.008363e-27
 1.400000e+02     6.609012e-27
 1.550000e+02     6.329670e-27
 1.650000e+02     6.190428e-27
 1.750000e+02     6.084914e-27
 1.850000e+02     6.014148e-27
 1.900000e+02     6.014215e-27
 1.950000e+02     6.065753e-27
 2.000000e+02     6.233711e-27
 2.050000e+02     6.652023e-27
 2.100000e+02     7.596554e-27
 2.150000e+02     9.595194e-27
 2.180000e+02     1.169257e-26
 2.210000e+02     1.486416e-26
 2.240000e+02     1.960099e-26
 2.260000e+02     2.396144e-26
 2.270000e+02     2.659790e-26
 2.275000e+02     2.804622e-26
 2.278400e+02     2.908464e-26
 2.380000e+02     1.270226e-23
 2.500000e+02     2.890628e-23
 2.700000e+02     4.346942e-23
 2.900000e+02     5.208572e-23
 3.035000e+02     5.649150e-23
 3.037800e+02     6.660257e-23
 3.045000e+02     6.618479e-23
 3.060000e+02     6.544699e-23
 3.080000e+02     6.472698e-23
 3.100000e+02     6.417229e-23
 3.120000e+02     6.374017e-23
 3.150000e+02     6.339275e-23
 3.200000e+02     6.331439e-23
 3.250000e+02     6.368994e-23
 3.300000e+02     6.439995e-23
 3.400000e+02     6.634119e-23
 3.600000e+02     7.101900e-23
 3.800000e+02     7.591531e-23
 4.050000e+02     8.211392e-23
 4.250000e+02     8.702501e-23
 4.500000e+02     9.320387e-23
 4.650000e+02     9.690284e-23
 4.750000e+02     9.937096e-23
 4.820000e+02     1.011135e-22
 4.870000e+02     1.023402e-22
 4.910000e+02     1.033318e-22
 4.950000e+02     1.043152e-22
 4.980000e+02     1.050204e-22
 5.000000e+02     1.055388e-22
 5.020000e+02     1.060082e-22
 5.039800e+02     1.065210e-22
 5.100000e+02     1.136914e-22
 5.250000e+02     1.254317e-22
 5.600000e+02     1.414913e-22
 6.000000e+02     1.552523e-22
 6.500000e+02     1.714030e-22
 7.000000e+02     1.894643e-22
 7.500000e+02     2.115131e-22
 8.000000e+02     2.399406e-22
 8.300000e+02     2.610523e-22
 8.600000e+02     2.864165e-22
 8.800000e+02     3.057778e-22
 8.900000e+02     3.164202e-22
 8.960000e+02     3.230292e-22
 9.000000e+02     3.276124e-22
 9.030000e+02     3.311270e-22
 9.060000e+02     3.345796e-22
 9.090000e+02     3.382034e-22
 9.117800e+02     3.416162e-22
 9.300000e+02     8.056384e-22
 9.500000e+02     1.616047e-21
 9.750000e+02     2.956419e-21
 9.900000e+02     3.619454e-21
 1.005000e+03     4.415374e-21
 1.025000e+03     5.743730e-21
 1.045000e+03     6.870800e-21
 1.065000e+03     8.445600e-21
 1.085000e+03     9.992738e-21
 1.105000e+03     1.148818e-20
 1.125000e+03     1.307199e-20
 1.145000e+03     1.447823e-20
 1.165000e+03     1.603167e-20
 1.185000e+03     1.738426e-20
 1.205000e+03     1.873400e-20
 1.215600e+03     1.934853e-20
 1.215670e+03     2.107075e-20
 1.216000e+03     2.108169e-20
 1.218000e+03     2.114294e-20
 1.221000e+03     2.123132e-20
 1.225000e+03     2.134859e-20
 1.230000e+03     2.150827e-20
 1.240000e+03     2.198022e-20
 1.250000e+03     2.260024e-20
 1.265000e+03     2.370727e-20
 1.285000e+03     2.518999e-20
 1.305000e+03     2.668414e-20
 1.325000e+03     2.794375e-20
 1.345000e+03     2.941665e-20
 1.365000e+03     3.081697e-20
 1.385000e+03     3.205751e-20
 1.405000e+03     3.312512e-20
 1.425000e+03     3.427330e-20
 1.442000e+03     3.538502e-20
 1.455000e+03     3.598953e-20
 1.475000e+03     3.705999e-20
 1.517000e+03     3.907156e-20
 1.595000e+03     4.197906e-20
 1.672000e+03     4.439687e-20
 1.745000e+03     4.640000e-20
 1.825000e+03     4.830647e-20
 1.905000e+03     4.966467e-20
 1.984000e+03     5.069776e-20
 2.065000e+03     5.144130e-20
 2.135000e+03     5.178885e-20
 2.215000e+03     5.209557e-20
 2.295000e+03     5.236668e-20
 2.375000e+03     5.248535e-20
 2.455000e+03     5.275057e-20
 2.525000e+03     5.289060e-20
 2.605000e+03     5.319491e-20
 2.685000e+03     5.365337e-20
 2.765000e+03     5.392326e-20
 2.845000e+03     5.403220e-20
 2.950000e+03     5.438645e-20
 3.110000e+03     5.481935e-20
 3.270000e+03     5.507171e-20
 3.430000e+03     5.522284e-20
 3.590000e+03     5.532525e-20
 3.730000e+03     5.573142e-20
 3.890000e+03     5.883939e-20
 4.050000e+03     6.260347e-20
 4.210000e+03     6.754695e-20
 4.370000e+03     7.158734e-20
 4.530000e+03     7.530395e-20
 4.690000e+03     7.866997e-20
 4.850000e+03     8.091341e-20
 5.010000e+03     8.305152e-20
 5.170000e+03     8.483735e-20
 5.330000e+03     8.652599e-20
 5.490000e+03     8.805609e-20
 5.650000e+03     8.952741e-20
 5.810000e+03     9.099729e-20
 5.970000e+03     9.209532e-20
 6.130000e+03     9.320381e-20
 6.290000e+03     9.416099e-20
 6.450000e+03     9.497765e-20
 6.610000e+03     9.569664e-20
 6.770000e+03     9.645764e-20
 6.930000e+03     9.709426e-20
 7.090000e+03     9.762081e-20
 7.250000e+03     9.809741e-20
 7.410000e+03     9.856149e-20
 7.570000e+03     9.907407e-20
 7.730000e+03     9.964201e-20
 7.890000e+03     1.001626e-19
 8.050000e+03     1.006117e-19
 8.210000e+03     1.010698e-19
 8.370000e+03     1.015115e-19
 8.530000e+03     1.019196e-19
 8.690000e+03     1.023560e-19
 8.850000e+03     1.029650e-19
 9.010000e+03     1.035315e-19
 9.170000e+03     1.040865e-19
 9.330000e+03     1.047652e-19
 9.490000e+03     1.054694e-19
 9.650000e+03     1.060279e-19
 9.810000e+03     1.066235e-19
 9.970000e+03     1.072057e-19
 1.050000e+04     1.085499e-19
 1.150000e+04     1.095860e-19
 1.250000e+04     1.099551e-19
 1.350000e+04     1.100534e-19
 1.450000e+04     1.102861e-19
 1.550000e+04     1.112945e-19
 1.650000e+04     1.118956e-19
 1.750000e+04     1.113098e-19
 1.850000e+04     1.094823e-19
 1.950000e+04     1.066483e-19
 2.050000e+04     1.035828e-19
 2.150000e+04     1.003354e-19
 2.250000e+04     9.685399e-20
 2.350000e+04     9.253581e-20
 2.450000e+04     8.785769e-20
 2.550000e+04     8.405751e-20
 2.650000e+04     8.067116e-20
 2.750000e+04     7.814472e-20
 2.850000e+04     7.611557e-20
 2.950000e+04     7.445255e-20
 3.050000e+04     7.304419e-20
 3.150000e+04     7.182172e-20
 3.250000e+04     7.073973e-20
 3.350000e+04     6.980228e-20
 3.450000e+04     6.904717e-20
 3.550000e+04     6.851818e-20
 3.650000e+04     6.822033e-20
 3.750000e+04     6.817881e-20
 3.850000e+04     6.854215e-20
 3.950000e+04     6.941522e-20
 4.050000e+04     6.992443e-20
 4.150000e+04     7.018393e-20
 4.250000e+04     7.047916e-20
 4.350000e+04     7.089816e-20
 4.450000e+04     7.145615e-20
 4.550000e+04     7.216957e-20
 4.650000e+04     7.304830e-20
 4.750000e+04     7.408837e-20
 4.850000e+04     7.527236e-20
 4.950000e+04     7.657983e-20
 5.050000e+04     7.800635e-20
 5.150000e+04     7.957894e-20
 5.250000e+04     8.134151e-20
 5.350000e+04     8.331434e-20
 5.450000e+04     8.531824e-20
 5.550000e+04     8.772618e-20
 5.650000e+04     9.092355e-20
 5.750000e+04     9.490286e-20
 5.850000e+04     9.855644e-20
 5.950000e+04     1.021360e-19
 6.050000e+04     1.070270e-19
 6.150000e+04     1.145012e-19
 6.250000e+04     1.292227e-19
 6.350000e+04     1.396002e-19
 6.450000e+04     1.449434e-19
 6.550000e+04     1.492607e-19
 6.650010e+04     1.533554e-19
 6.750010e+04     1.576886e-19
 6.850010e+04     1.620019e-19
 6.950010e+04     1.673359e-19
 7.020000e+04     1.725980e-19
 7.100000e+04     1.782215e-19
 7.180000e+04     1.835326e-19
 7.260000e+04     1.887596e-19
 7.340000e+04     1.948903e-19
 7.420000e+04     2.030931e-19
 7.500000e+04     2.140091e-19
 7.580000e+04     2.276503e-19
 7.660000e+04     2.434775e-19
 7.740000e+04     2.593333e-19
 7.820000e+04     2.748883e-19
 7.900000e+04     2.895309e-19
 7.980000e+04     3.017192e-19
 8.060000e+04     3.115811e-19
 8.140000e+04     3.192776e-19
 8.220000e+04     3.258790e-19
 8.300000e+04     3.316268e-19
 8.380000e+04     3.368780e-19
 8.460000e+04     3.419458e-19
 8.540000e+04     3.473042e-19
 8.620000e+04     3.527370e-19
 8.700000e+04     3.571878e-19
 8.780000e+04     3.595210e-19
 8.860000e+04     3.597639e-19
 8.940000e+04     3.588160e-19
 9.020000e+04     3.561090e-19
 9.100000e+04     3.526149e-19
 9.180000e+04     3.485887e-19
 9.260000e+04     3.440275e-19
 9.340000e+04     3.392281e-19
 9.420000e+04     3.344968e-19
 9.500000e+04     3.301249e-19
 9.580000e+04     3.262435e-19
 9.660000e+04     3.230068e-19
 9.740000e+04     3.201017e-19
 9.820000e+04     3.169017e-19
 9.900000e+04     3.133292e-19
 9.980000e+04     3.095969e-19
 1.006000e+05     3.056017e-19
 1.020000e+05     2.981973e-19
 1.040000e+05     2.863868e-19
 1.060000e+05     2.773405e-19
 1.080000e+05     2.710703e-19
 1.100000e+05     2.663637e-19
 1.120000e+05     2.696341e-19
 1.140000e+05     2.830272e-19
 1.160000e+05     2.878108e-19
 1.180000e+05     2.917717e-19
 1.200000e+05     2.989664e-19
 1.220000e+05     3.083116e-19
 1.240000e+05     3.203924e-19
 1.260000e+05     3.356081e-19
 1.280000e+05     3.581414e-19
 1.300000e+05     3.779509e-19
 1.320000e+05     3.827335e-19
 1.340000e+05     3.890307e-19
 1.360000e+05     3.949452e-19
 1.380000e+05     4.014295e-19
 1.400000e+05     4.085305e-19
 1.420000e+05     4.159641e-19
 1.440000e+05     4.213114e-19
 1.460000e+05     4.239301e-19
 1.480000e+05     4.247076e-19
 1.500000e+05     4.239688e-19
 1.520000e+05     4.226664e-19
 1.540000e+05     4.216317e-19
 1.560000e+05     4.232725e-19
 1.580000e+05     4.247482e-19
 1.600000e+05     4.248634e-19
 1.620000e+05     4.254690e-19
 1.640000e+05     4.275643e-19
 1.660000e+05     4.320478e-19
 1.680000e+05     4.352781e-19
 1.700000e+05     4.406766e-19
 1.720000e+05     4.486101e-19
 1.740000e+05     4.539791e-19
 1.760000e+05     4.595570e-19
 1.780000e+05     4.638295e-19
 1.800000e+05     4.690776e-19
 1.820000e+05     4.735631e-19
 1.840000e+05     4.785820e-19
 1.860000e+05     4.846359e-19
 1.880000e+05     4.955657e-19
 1.900000e+05     5.035397e-19
 1.920000e+05     5.110066e-19
 1.940000e+05     5.196458e-19
 1.960000e+05     5.287563e-19
 1.980000e+05     5.388641e-19
 2.000000e+05     5.490854e-19
 2.020000e+05     5.603196e-19
 2.040000e+05     5.721755e-19
 2.060000e+05     5.841316e-19
 2.080000e+05     5.961634e-19
 2.100000e+05     6.101511e-19
 2.120000e+05     6.238342e-19
 2.140000e+05     6.376778e-19
 2.160000e+05     6.533241e-19
 2.180000e+05     6.693363e-19
 2.200000e+05     6.838419e-19
 2.220000e+05     6.988452e-19
 2.240000e+05     7.153978e-19
 2.260000e+05     7.311839e-19
 2.280000e+05     7.461772e-19
 2.300000e+05     7.629082e-19
 2.320000e+05     7.814731e-19
 2.340000e+05     8.001576e-19
 2.360000e+05     8.183721e-19
 2.380000e+05     8.377033e-19
 2.400000e+05     8.586143e-19
 2.420000e+05     8.795718e-19
 2.440000e+05     8.997719e-19
 2.460000e+05     9.208121e-19
 2.480000e+05     9.433421e-19
 2.500000e+05     9.661040e-19
 2.520000e+05     9.881385e-19
 2.540000e+05     1.010221e-18
 2.560000e+05     1.034193e-18
 2.580000e+05     1.060405e-18
 2.600000e+05     1.087747e-18
 2.620000e+05     1.114460e-18
 2.640000e+05     1.141049e-18
 2.660000e+05     1.169194e-18
 2.680000e+05     1.199113e-18
 2.700000e+05     1.229583e-18
 2.720000e+05     1.259787e-18
 2.740000e+05     1.289516e-18
 2.760000e+05     1.320246e-18
 2.780000e+05     1.352964e-18
 2.800000e+05     1.387214e-18
 2.820000e+05     1.421994e-18
 2.840000e+05     1.455776e-18
 2.860000e+05     1.488730e-18
 2.880000e+05     1.522004e-18
 2.900000e+05     1.557439e-18
 2.920000e+05     1.593251e-18
 2.940000e+05     1.629728e-18
 2.960000e+05     1.666774e-18
 2.980000e+05     1.703816e-18
 3.000000e+05     1.740019e-18
 3.020000e+05     1.777845e-18
 3.040000e+05     1.816528e-18
 3.060000e+05     1.855172e-18
 3.080000e+05     1.894496e-18
 3.100000e+05     1.933943e-18
 3.120000e+05     1.972269e-18
 3.140000e+05     2.011625e-18
 3.160000e+05     2.053042e-18
 3.180000e+05     2.094453e-18
 3.200000e+05     2.137046e-18
 3.220000e+05     2.181477e-18
 3.240000e+05     2.225766e-18
 3.260000e+05     2.270708e-18
 3.280000e+05     2.315430e-18
 3.300000e+05     2.360500e-18
 3.320000e+05     2.406223e-18
 3.340000e+05     2.460260e-18
 3.360000e+05     2.518032e-18
 3.380000e+05     2.570479e-18
 3.400000e+05     2.617347e-18
 3.420000e+05     2.662398e-18
 3.440000e+05     2.708859e-18
 3.460000e+05     2.759008e-18
 3.480000e+05     2.817214e-18
 3.500000e+05     2.878230e-18
 3.520000e+05     2.930986e-18
 3.540000e+05     2.979844e-18
 3.560000e+05     3.026264e-18
 3.580000e+05     3.070803e-18
 3.600000e+05     3.118613e-18
 3.620000e+05     3.165732e-18
 3.640000e+05     3.211919e-18
 3.660000e+05     3.258756e-18
 3.680000e+05     3.304680e-18
 3.700000e+05     3.352137e-18
 3.720000e+05     3.400074e-18
 3.740000e+05     3.447869e-18
 3.760000e+05     3.495844e-18
 3.780000e+05     3.544355e-18
 3.800000e+05     3.592908e-18
 3.820000e+05     3.641835e-18
 3.840000e+05     3.691290e-18
 3.860000e+05     3.741112e-18
 3.880000e+05     3.791349e-18
 3.900000e+05     3.842083e-18
 3.920000e+05     3.893187e-18
 4.320000e+05     4.990397e-18
 4.760000e+05     6.262968e-18
 5.250000e+05     7.690605e-18
 5.790000e+05     9.200694e-18
 6.390000e+05     1.074278e-17
 7.040000e+05     1.211269e-17
 7.760000e+05     1.321982e-17
 8.560000e+05     1.402630e-17
 9.430000e+05     1.453701e-17
 1.040000e+06     1.482016e-17
 1.147000e+06     1.492937e-17
 1.264000e+06     1.491265e-17
 1.394000e+06     1.480033e-17
 1.537000e+06     1.459135e-17
 1.694000e+06     1.426068e-17
 1.868000e+06     1.377413e-17
 2.059000e+06     1.310913e-17
 2.270000e+06     1.225522e-17
 2.503000e+06     1.122973e-17
 2.760000e+06     1.007332e-17
 3.043000e+06     8.842878e-18
 3.354000e+06     7.599944e-18
 3.698000e+06     6.391745e-18
