## EBL from Khaire & Srianand 2018; Q20 Model with alpha=-2.0 
## Column1:wavelength (Angstrom);  Column2:EBL specific intensity J_nu (erg/s/cm^2/Hz/Sr)
## ===========================================================================================
 1.000000e-08     5.430499e-37
 1.122019e-08     7.897796e-37
 1.258925e-08     1.132164e-36
 1.412538e-08     1.592598e-36
 1.584893e-08     2.197446e-36
 1.778279e-08     2.977358e-36
 1.995263e-08     3.967632e-36
 2.238721e-08     5.208694e-36
 2.511887e-08     6.746817e-36
 2.818382e-08     8.634878e-36
 3.162278e-08     1.093347e-35
 3.548135e-08     1.371205e-35
 3.981071e-08     1.705040e-35
 4.466837e-08     2.104044e-35
 5.011870e-08     2.578807e-35
 5.623413e-08     3.141564e-35
 6.309576e-08     3.806450e-35
 7.079456e-08     4.589808e-35
 7.943284e-08     5.510580e-35
 8.912505e-08     6.590667e-35
 1.000000e-07     7.855482e-35
 1.122019e-07     9.334436e-35
 1.258925e-07     1.106160e-34
 1.412538e-07     1.307654e-34
 1.584892e-07     1.542499e-34
 1.778279e-07     1.816010e-34
 1.995263e-07     2.134337e-34
 2.238721e-07     2.504609e-34
 2.511887e-07     2.935095e-34
 2.818382e-07     3.435370e-34
 3.162278e-07     4.016545e-34
 3.548136e-07     4.691485e-34
 3.981071e-07     5.475094e-34
 4.466837e-07     6.384672e-34
 5.011870e-07     7.440230e-34
 5.623413e-07     8.665002e-34
 6.309576e-07     1.008588e-33
 7.079456e-07     1.173402e-33
 7.943284e-07     1.364559e-33
 8.912505e-07     1.586240e-33
 1.000000e-06     1.843302e-33
 1.122019e-06     2.141365e-33
 1.258925e-06     2.486940e-33
 1.412538e-06     2.887583e-33
 1.584893e-06     3.352037e-33
 1.778279e-06     3.890443e-33
 1.995263e-06     4.514551e-33
 2.238721e-06     5.237966e-33
 2.511887e-06     6.076472e-33
 2.818382e-06     7.048339e-33
 3.162278e-06     8.174763e-33
 3.548136e-06     9.480285e-33
 3.981071e-06     1.099333e-32
 4.466837e-06     1.274689e-32
 5.011870e-06     1.477913e-32
 5.623413e-06     1.713434e-32
 6.309576e-06     1.986380e-32
 7.079456e-06     2.302689e-32
 7.943284e-06     2.669255e-32
 8.912505e-06     3.094050e-32
 1.000000e-05     3.586331e-32
 1.122019e-05     4.156808e-32
 1.258925e-05     4.817892e-32
 1.412538e-05     5.583986e-32
 1.584893e-05     6.471745e-32
 1.778279e-05     7.500502e-32
 1.995263e-05     8.692649e-32
 2.238721e-05     1.007411e-31
 2.511887e-05     1.167496e-31
 2.818382e-05     1.353003e-31
 3.162278e-05     1.567969e-31
 3.548135e-05     1.817073e-31
 3.981071e-05     2.105731e-31
 4.466837e-05     2.440227e-31
 5.011870e-05     2.827836e-31
 5.623413e-05     3.276997e-31
 6.309577e-05     3.797481e-31
 7.079457e-05     4.400605e-31
 7.943284e-05     5.099501e-31
 8.912505e-05     5.909365e-31
 1.000000e-04     6.847830e-31
 1.122018e-04     7.935300e-31
 1.258926e-04     9.194342e-31
 1.412538e-04     1.062818e-30
 1.584893e-04     1.227712e-30
 1.778279e-04     1.418433e-30
 1.995262e-04     1.639740e-30
 2.238722e-04     1.897050e-30
 2.511887e-04     2.196637e-30
 2.818383e-04     2.545847e-30
 3.162278e-04     2.953325e-30
 3.548134e-04     3.429260e-30
 3.981073e-04     3.985695e-30
 4.466837e-04     4.636863e-30
 5.011873e-04     5.399616e-30
 5.623413e-04     6.293908e-30
 6.309572e-04     7.343394e-30
 7.079460e-04     8.576136e-30
 7.943284e-04     1.002541e-29
 8.912510e-04     1.173077e-29
 1.000000e-03     1.373920e-29
 1.122018e-03     1.610653e-29
 1.258926e-03     1.889927e-29
 1.412538e-03     2.219645e-29
 1.584893e-03     2.609226e-29
 1.778279e-03     3.069892e-29
 1.995262e-03     3.615021e-29
 2.238722e-03     4.260561e-29
 2.511887e-03     5.025533e-29
 2.818383e-03     5.932650e-29
 3.162278e-03     7.009024e-29
 3.548133e-03     8.287030e-29
 3.981073e-03     9.805371e-29
 4.466837e-03     1.161027e-28
 5.011873e-03     1.375705e-28
 5.623413e-03     1.631194e-28
 6.309573e-03     1.935447e-28
 7.079460e-03     2.298049e-28
 7.943284e-03     2.730627e-28
 8.912510e-03     3.247400e-28
 1.000000e-02     3.865903e-28
 1.122019e-02     4.607896e-28
 1.258925e-02     5.500444e-28
 1.412538e-02     6.577219e-28
 1.584894e-02     7.879775e-28
 1.778279e-02     9.458997e-28
 1.995263e-02     1.137659e-27
 2.238721e-02     1.370643e-27
 2.511887e-02     1.653637e-27
 2.818385e-02     1.996990e-27
 3.162277e-02     2.412836e-27
 3.548136e-02     2.915384e-27
 3.981071e-02     3.521216e-27
 4.466837e-02     4.249768e-27
 5.011876e-02     5.123817e-27
 5.623413e-02     6.170149e-27
 6.309576e-02     7.420403e-27
 7.079456e-02     8.911967e-27
 7.943284e-02     1.068925e-26
 8.912515e-02     1.280498e-26
 1.000000e-01     1.532192e-26
 1.122019e-01     1.831666e-26
 1.258925e-01     2.180164e-26
 1.412538e-01     2.568831e-26
 1.584894e-01     2.990892e-26
 1.778279e-01     3.440957e-26
 1.995263e-01     3.914569e-26
 2.238721e-01     4.407902e-26
 2.511887e-01     4.917655e-26
 2.818385e-01     5.440961e-26
 3.162278e-01     5.975369e-26
 3.548135e-01     6.518848e-26
 3.981071e-01     7.069736e-26
 4.466837e-01     7.626748e-26
 5.011876e-01     8.188923e-26
 5.623413e-01     8.755593e-26
 6.309576e-01     9.326356e-26
 7.079456e-01     9.901010e-26
 7.943284e-01     1.047954e-25
 8.912515e-01     1.106206e-25
 1.000000e+00     1.164876e-25
 1.122019e+00     1.223991e-25
 1.258925e+00     1.283579e-25
 1.412538e+00     1.343672e-25
 1.584894e+00     1.404296e-25
 1.778279e+00     1.465474e-25
 1.995263e+00     1.527226e-25
 2.238721e+00     1.589567e-25
 2.511887e+00     1.652505e-25
 2.818385e+00     1.716045e-25
 3.162278e+00     1.780189e-25
 3.548136e+00     1.844939e-25
 3.981071e+00     1.910299e-25
 4.466837e+00     1.976276e-25
 5.011876e+00     2.042879e-25
 5.623413e+00     2.110123e-25
 6.309576e+00     2.176998e-25
 7.079456e+00     2.228983e-25
 7.943284e+00     2.275162e-25
 8.912516e+00     2.320841e-25
 1.000000e+01     2.368833e-25
 1.122019e+01     2.420393e-25
 1.258925e+01     2.477047e-25
 1.412538e+01     2.568365e-25
 1.584894e+01     2.698331e-25
 1.778279e+01     2.869862e-25
 1.995263e+01     3.088824e-25
 2.238721e+01     3.352930e-25
 2.511887e+01     3.653670e-25
 2.818385e+01     3.958140e-25
 3.162278e+01     4.392518e-25
 3.548135e+01     4.848641e-25
 3.981071e+01     5.294015e-25
 4.466837e+01     5.723033e-25
 5.011876e+01     6.138451e-25
 5.623413e+01     6.522448e-25
 6.309576e+01     6.899702e-25
 7.079456e+01     7.290789e-25
 7.943284e+01     7.710534e-25
 8.912515e+01     8.172306e-25
 1.000000e+02     8.687440e-25
 1.120000e+02     9.234682e-25
 1.250000e+02     9.794930e-25
 1.400000e+02     1.038554e-24
 1.550000e+02     1.091878e-24
 1.650000e+02     1.124196e-24
 1.750000e+02     1.154701e-24
 1.850000e+02     1.184335e-24
 1.900000e+02     1.201266e-24
 1.950000e+02     1.222375e-24
 2.000000e+02     1.255084e-24
 2.050000e+02     1.315019e-24
 2.100000e+02     1.432947e-24
 2.150000e+02     1.673170e-24
 2.180000e+02     1.922686e-24
 2.210000e+02     2.300354e-24
 2.240000e+02     2.866524e-24
 2.260000e+02     3.390812e-24
 2.270000e+02     3.709212e-24
 2.275000e+02     3.883701e-24
 2.278400e+02     4.036730e-24
 2.380000e+02     1.094210e-23
 2.500000e+02     1.873221e-23
 2.700000e+02     2.919500e-23
 2.900000e+02     3.826614e-23
 3.035000e+02     4.371836e-23
 3.037800e+02     7.800946e-23
 3.045000e+02     7.729608e-23
 3.060000e+02     7.612617e-23
 3.080000e+02     7.479543e-23
 3.100000e+02     7.342905e-23
 3.120000e+02     7.221547e-23
 3.150000e+02     7.041927e-23
 3.200000e+02     6.819480e-23
 3.250000e+02     6.626570e-23
 3.300000e+02     6.492090e-23
 3.400000e+02     6.336529e-23
 3.600000e+02     6.371875e-23
 3.800000e+02     6.692445e-23
 4.050000e+02     7.251870e-23
 4.250000e+02     7.750026e-23
 4.500000e+02     8.385210e-23
 4.650000e+02     8.780852e-23
 4.750000e+02     9.045464e-23
 4.820000e+02     9.234088e-23
 4.870000e+02     9.362050e-23
 4.910000e+02     9.465145e-23
 4.950000e+02     9.577632e-23
 4.980000e+02     9.652552e-23
 5.000000e+02     9.704383e-23
 5.020000e+02     9.757744e-23
 5.039800e+02     9.819619e-23
 5.100000e+02     1.012390e-22
 5.250000e+02     1.082155e-22
 5.600000e+02     1.228549e-22
 6.000000e+02     1.378588e-22
 6.500000e+02     1.558039e-22
 7.000000e+02     1.744693e-22
 7.500000e+02     1.959655e-22
 8.000000e+02     2.221856e-22
 8.300000e+02     2.408988e-22
 8.600000e+02     2.629540e-22
 8.800000e+02     2.795145e-22
 8.900000e+02     2.887653e-22
 8.960000e+02     2.941953e-22
 9.000000e+02     2.981221e-22
 9.030000e+02     3.009924e-22
 9.060000e+02     3.042159e-22
 9.090000e+02     3.072211e-22
 9.117800e+02     3.100306e-22
 9.300000e+02     7.023123e-22
 9.500000e+02     1.195932e-21
 9.750000e+02     2.041443e-21
 9.900000e+02     2.472098e-21
 1.005000e+03     3.000892e-21
 1.025000e+03     3.891908e-21
 1.045000e+03     4.690774e-21
 1.065000e+03     5.791409e-21
 1.085000e+03     6.908206e-21
 1.105000e+03     7.997346e-21
 1.125000e+03     9.196288e-21
 1.145000e+03     1.027525e-20
 1.165000e+03     1.152165e-20
 1.185000e+03     1.260177e-20
 1.205000e+03     1.371434e-20
 1.215600e+03     1.424962e-20
 1.215670e+03     1.510889e-20
 1.216000e+03     1.512357e-20
 1.218000e+03     1.520622e-20
 1.221000e+03     1.531342e-20
 1.225000e+03     1.542599e-20
 1.230000e+03     1.558672e-20
 1.240000e+03     1.605671e-20
 1.250000e+03     1.662856e-20
 1.265000e+03     1.761164e-20
 1.285000e+03     1.888842e-20
 1.305000e+03     2.019317e-20
 1.325000e+03     2.145615e-20
 1.345000e+03     2.279253e-20
 1.365000e+03     2.405509e-20
 1.385000e+03     2.535083e-20
 1.405000e+03     2.645704e-20
 1.425000e+03     2.751243e-20
 1.442000e+03     2.845107e-20
 1.455000e+03     2.919065e-20
 1.475000e+03     3.034326e-20
 1.517000e+03     3.245436e-20
 1.595000e+03     3.575505e-20
 1.672000e+03     3.865119e-20
 1.745000e+03     4.114364e-20
 1.825000e+03     4.358925e-20
 1.905000e+03     4.547342e-20
 1.984000e+03     4.699723e-20
 2.065000e+03     4.821654e-20
 2.135000e+03     4.891506e-20
 2.215000e+03     4.956125e-20
 2.295000e+03     5.012405e-20
 2.375000e+03     5.069523e-20
 2.455000e+03     5.130428e-20
 2.525000e+03     5.187409e-20
 2.605000e+03     5.257137e-20
 2.685000e+03     5.350161e-20
 2.765000e+03     5.426220e-20
 2.845000e+03     5.480059e-20
 2.950000e+03     5.576606e-20
 3.110000e+03     5.717860e-20
 3.270000e+03     5.835693e-20
 3.430000e+03     5.939591e-20
 3.590000e+03     6.032345e-20
 3.730000e+03     6.149559e-20
 3.890000e+03     6.580826e-20
 4.050000e+03     7.009948e-20
 4.210000e+03     7.656078e-20
 4.370000e+03     8.210131e-20
 4.530000e+03     8.734020e-20
 4.690000e+03     9.227482e-20
 4.850000e+03     9.603177e-20
 5.010000e+03     9.947421e-20
 5.170000e+03     1.025833e-19
 5.330000e+03     1.055143e-19
 5.490000e+03     1.082129e-19
 5.650000e+03     1.107991e-19
 5.810000e+03     1.133226e-19
 5.970000e+03     1.153629e-19
 6.130000e+03     1.173871e-19
 6.290000e+03     1.191329e-19
 6.450000e+03     1.207162e-19
 6.610000e+03     1.221391e-19
 6.770000e+03     1.235874e-19
 6.930000e+03     1.248881e-19
 7.090000e+03     1.260450e-19
 7.250000e+03     1.271104e-19
 7.410000e+03     1.281367e-19
 7.570000e+03     1.291656e-19
 7.730000e+03     1.302905e-19
 7.890000e+03     1.313141e-19
 8.050000e+03     1.322320e-19
 8.210000e+03     1.331723e-19
 8.370000e+03     1.340527e-19
 8.530000e+03     1.348731e-19
 8.690000e+03     1.357205e-19
 8.850000e+03     1.367679e-19
 9.010000e+03     1.377232e-19
 9.170000e+03     1.386009e-19
 9.330000e+03     1.397996e-19
 9.490000e+03     1.408719e-19
 9.650000e+03     1.418264e-19
 9.810000e+03     1.428003e-19
 9.970000e+03     1.437873e-19
 1.050000e+04     1.462811e-19
 1.150000e+04     1.488117e-19
 1.250000e+04     1.503947e-19
 1.350000e+04     1.513584e-19
 1.450000e+04     1.523051e-19
 1.550000e+04     1.540279e-19
 1.650000e+04     1.552441e-19
 1.750000e+04     1.548077e-19
 1.850000e+04     1.527049e-19
 1.950000e+04     1.492597e-19
 2.050000e+04     1.454124e-19
 2.150000e+04     1.412736e-19
 2.250000e+04     1.367405e-19
 2.350000e+04     1.311144e-19
 2.450000e+04     1.246470e-19
 2.550000e+04     1.191676e-19
 2.650000e+04     1.138937e-19
 2.750000e+04     1.094414e-19
 2.850000e+04     1.053770e-19
 2.950000e+04     1.015727e-19
 3.050000e+04     9.795881e-20
 3.150000e+04     9.450792e-20
 3.250000e+04     9.118781e-20
 3.350000e+04     8.800008e-20
 3.450000e+04     8.496983e-20
 3.550000e+04     8.213040e-20
 3.650000e+04     7.946078e-20
 3.750000e+04     7.695372e-20
 3.850000e+04     7.462371e-20
 3.950000e+04     7.254638e-20
 4.050000e+04     7.078561e-20
 4.150000e+04     6.912457e-20
 4.250000e+04     6.718346e-20
 4.350000e+04     6.514808e-20
 4.450000e+04     6.311602e-20
 4.550000e+04     6.117331e-20
 4.650000e+04     5.941139e-20
 4.750000e+04     5.793867e-20
 4.850000e+04     5.680727e-20
 4.950000e+04     5.611834e-20
 5.050000e+04     5.589059e-20
 5.150000e+04     5.609220e-20
 5.250000e+04     5.670535e-20
 5.350000e+04     5.774616e-20
 5.450000e+04     5.925181e-20
 5.550000e+04     6.133325e-20
 5.650000e+04     6.384125e-20
 5.750000e+04     6.687255e-20
 5.850000e+04     6.882921e-20
 5.950000e+04     7.034205e-20
 6.050000e+04     7.320585e-20
 6.150000e+04     7.914390e-20
 6.250000e+04     9.368779e-20
 6.350000e+04     1.037723e-19
 6.450000e+04     1.076902e-19
 6.550000e+04     1.110692e-19
 6.650010e+04     1.140541e-19
 6.750010e+04     1.176184e-19
 6.850010e+04     1.205548e-19
 6.950010e+04     1.250260e-19
 7.020000e+04     1.292262e-19
 7.100000e+04     1.334353e-19
 7.180000e+04     1.371866e-19
 7.260000e+04     1.411910e-19
 7.340000e+04     1.464272e-19
 7.420000e+04     1.543167e-19
 7.500000e+04     1.656413e-19
 7.580000e+04     1.801542e-19
 7.660000e+04     1.963495e-19
 7.740000e+04     2.118335e-19
 7.820000e+04     2.263136e-19
 7.900000e+04     2.393158e-19
 7.980000e+04     2.494494e-19
 8.060000e+04     2.566171e-19
 8.140000e+04     2.615691e-19
 8.220000e+04     2.652721e-19
 8.300000e+04     2.681725e-19
 8.380000e+04     2.706959e-19
 8.460000e+04     2.731747e-19
 8.540000e+04     2.760675e-19
 8.620000e+04     2.792956e-19
 8.700000e+04     2.815257e-19
 8.780000e+04     2.817174e-19
 8.860000e+04     2.802122e-19
 8.940000e+04     2.780125e-19
 9.020000e+04     2.753377e-19
 9.100000e+04     2.722709e-19
 9.180000e+04     2.691546e-19
 9.260000e+04     2.659820e-19
 9.340000e+04     2.627869e-19
 9.420000e+04     2.596764e-19
 9.500000e+04     2.567804e-19
 9.580000e+04     2.538897e-19
 9.660000e+04     2.514925e-19
 9.740000e+04     2.493191e-19
 9.820000e+04     2.465685e-19
 9.900000e+04     2.437317e-19
 9.980000e+04     2.410242e-19
 1.006000e+05     2.386482e-19
 1.020000e+05     2.352030e-19
 1.040000e+05     2.318461e-19
 1.060000e+05     2.311723e-19
 1.080000e+05     2.317733e-19
 1.100000e+05     2.338220e-19
 1.120000e+05     2.447410e-19
 1.140000e+05     2.679400e-19
 1.160000e+05     2.758235e-19
 1.180000e+05     2.817130e-19
 1.200000e+05     2.883032e-19
 1.220000e+05     2.969627e-19
 1.240000e+05     3.080578e-19
 1.260000e+05     3.228867e-19
 1.280000e+05     3.478093e-19
 1.300000e+05     3.711364e-19
 1.320000e+05     3.731726e-19
 1.340000e+05     3.828508e-19
 1.360000e+05     3.872820e-19
 1.380000e+05     3.936042e-19
 1.400000e+05     3.977754e-19
 1.420000e+05     4.039253e-19
 1.440000e+05     4.093515e-19
 1.460000e+05     4.147799e-19
 1.480000e+05     4.201115e-19
 1.500000e+05     4.257276e-19
 1.520000e+05     4.309674e-19
 1.540000e+05     4.364412e-19
 1.560000e+05     4.449738e-19
 1.580000e+05     4.522029e-19
 1.600000e+05     4.574798e-19
 1.620000e+05     4.636856e-19
 1.640000e+05     4.714165e-19
 1.660000e+05     4.824487e-19
 1.680000e+05     4.917635e-19
 1.700000e+05     5.034822e-19
 1.720000e+05     5.165155e-19
 1.740000e+05     5.270356e-19
 1.760000e+05     5.347860e-19
 1.780000e+05     5.428706e-19
 1.800000e+05     5.501034e-19
 1.820000e+05     5.574959e-19
 1.840000e+05     5.646360e-19
 1.860000e+05     5.730039e-19
 1.880000e+05     5.862029e-19
 1.900000e+05     5.962291e-19
 1.920000e+05     6.054749e-19
 1.940000e+05     6.161972e-19
 1.960000e+05     6.282173e-19
 1.980000e+05     6.414418e-19
 2.000000e+05     6.556636e-19
 2.020000e+05     6.710021e-19
 2.040000e+05     6.882810e-19
 2.060000e+05     7.052728e-19
 2.080000e+05     7.226695e-19
 2.100000e+05     7.424140e-19
 2.120000e+05     7.624336e-19
 2.140000e+05     7.819021e-19
 2.160000e+05     8.040037e-19
 2.180000e+05     8.275293e-19
 2.200000e+05     8.496150e-19
 2.220000e+05     8.726967e-19
 2.240000e+05     8.985219e-19
 2.260000e+05     9.237812e-19
 2.280000e+05     9.486166e-19
 2.300000e+05     9.757451e-19
 2.320000e+05     1.005151e-18
 2.340000e+05     1.035029e-18
 2.360000e+05     1.065235e-18
 2.380000e+05     1.097546e-18
 2.400000e+05     1.132170e-18
 2.420000e+05     1.167812e-18
 2.440000e+05     1.204052e-18
 2.460000e+05     1.242154e-18
 2.480000e+05     1.282646e-18
 2.500000e+05     1.324351e-18
 2.520000e+05     1.366312e-18
 2.540000e+05     1.409869e-18
 2.560000e+05     1.455619e-18
 2.580000e+05     1.503459e-18
 2.600000e+05     1.552658e-18
 2.620000e+05     1.601889e-18
 2.640000e+05     1.651650e-18
 2.660000e+05     1.703014e-18
 2.680000e+05     1.756442e-18
 2.700000e+05     1.810257e-18
 2.720000e+05     1.863812e-18
 2.740000e+05     1.917251e-18
 2.760000e+05     1.973002e-18
 2.780000e+05     2.030868e-18
 2.800000e+05     2.091335e-18
 2.820000e+05     2.154080e-18
 2.840000e+05     2.216542e-18
 2.860000e+05     2.278373e-18
 2.880000e+05     2.341068e-18
 2.900000e+05     2.405665e-18
 2.920000e+05     2.472272e-18
 2.940000e+05     2.539416e-18
 2.960000e+05     2.608061e-18
 2.980000e+05     2.676979e-18
 3.000000e+05     2.745765e-18
 3.020000e+05     2.816147e-18
 3.040000e+05     2.888576e-18
 3.060000e+05     2.961481e-18
 3.080000e+05     3.035597e-18
 3.100000e+05     3.109530e-18
 3.120000e+05     3.182970e-18
 3.140000e+05     3.259335e-18
 3.160000e+05     3.337033e-18
 3.180000e+05     3.415832e-18
 3.200000e+05     3.497438e-18
 3.220000e+05     3.579168e-18
 3.240000e+05     3.661516e-18
 3.260000e+05     3.746828e-18
 3.280000e+05     3.831372e-18
 3.300000e+05     3.915969e-18
 3.320000e+05     4.000361e-18
 3.340000e+05     4.094711e-18
 3.360000e+05     4.197239e-18
 3.380000e+05     4.292541e-18
 3.400000e+05     4.371952e-18
 3.420000e+05     4.458268e-18
 3.440000e+05     4.546634e-18
 3.460000e+05     4.625803e-18
 3.480000e+05     4.726514e-18
 3.500000e+05     4.842130e-18
 3.520000e+05     4.943716e-18
 3.540000e+05     5.036114e-18
 3.560000e+05     5.124747e-18
 3.580000e+05     5.207582e-18
 3.600000e+05     5.293482e-18
 3.620000e+05     5.385058e-18
 3.640000e+05     5.475030e-18
 3.660000e+05     5.563072e-18
 3.680000e+05     5.650331e-18
 3.700000e+05     5.740536e-18
 3.720000e+05     5.833922e-18
 3.740000e+05     5.927206e-18
 3.760000e+05     6.020507e-18
 3.780000e+05     6.115306e-18
 3.800000e+05     6.212797e-18
 3.820000e+05     6.311271e-18
 3.840000e+05     6.410092e-18
 3.860000e+05     6.510527e-18
 3.880000e+05     6.612911e-18
 3.900000e+05     6.716219e-18
 3.920000e+05     6.819937e-18
 4.320000e+05     9.052509e-18
 4.760000e+05     1.166427e-17
 5.250000e+05     1.452464e-17
 5.790000e+05     1.742407e-17
 6.390000e+05     2.021334e-17
 7.040000e+05     2.256497e-17
 7.760000e+05     2.429151e-17
 8.560000e+05     2.524995e-17
 9.430000e+05     2.539936e-17
 1.040000e+06     2.481625e-17
 1.147000e+06     2.363813e-17
 1.264000e+06     2.205389e-17
 1.394000e+06     2.022037e-17
 1.537000e+06     1.831061e-17
 1.694000e+06     1.643867e-17
 1.868000e+06     1.466408e-17
 2.059000e+06     1.303703e-17
 2.270000e+06     1.155394e-17
 2.503000e+06     1.020439e-17
 2.760000e+06     8.969875e-18
 3.043000e+06     7.833130e-18
 3.354000e+06     6.782102e-18
 3.698000e+06     5.804933e-18
