## EBL from Khaire & Srianand 2018; Q20 Model with alpha=-2.0 
## Column1:wavelength (Angstrom);  Column2:EBL specific intensity J_nu (erg/s/cm^2/Hz/Sr)
## ===========================================================================================
 1.000000e-08     1.523397e-37
 1.122019e-08     2.222223e-37
 1.258925e-08     3.227743e-37
 1.412538e-08     4.650845e-37
 1.584893e-08     6.628400e-37
 1.778279e-08     9.324764e-37
 1.995263e-08     1.293291e-36
 2.238721e-08     1.767598e-36
 2.511887e-08     2.381002e-36
 2.818382e-08     3.162754e-36
 3.162278e-08     4.146293e-36
 3.548135e-08     5.369819e-36
 3.981071e-08     6.877052e-36
 4.466837e-08     8.718118e-36
 5.011870e-08     1.095048e-35
 5.623413e-08     1.364023e-35
 6.309576e-08     1.686336e-35
 7.079456e-08     2.070739e-35
 7.943284e-08     2.527340e-35
 8.912505e-08     3.067796e-35
 1.000000e-07     3.705601e-35
 1.122019e-07     4.456350e-35
 1.258925e-07     5.338088e-35
 1.412538e-07     6.371742e-35
 1.584892e-07     7.581501e-35
 1.778279e-07     8.995457e-35
 1.995263e-07     1.064611e-34
 2.238721e-07     1.257113e-34
 2.511887e-07     1.481421e-34
 2.818382e-07     1.742594e-34
 3.162278e-07     2.046504e-34
 3.548136e-07     2.399947e-34
 3.981071e-07     2.810800e-34
 4.466837e-07     3.288206e-34
 5.011870e-07     3.842740e-34
 5.623413e-07     4.486684e-34
 6.309576e-07     5.234250e-34
 7.079456e-07     6.101909e-34
 7.943284e-07     7.108773e-34
 8.912505e-07     8.276953e-34
 1.000000e-06     9.632120e-34
 1.122019e-06     1.120399e-33
 1.258925e-06     1.302697e-33
 1.412538e-06     1.514104e-33
 1.584893e-06     1.759238e-33
 1.778279e-06     2.043463e-33
 1.995263e-06     2.372992e-33
 2.238721e-06     2.755018e-33
 2.511887e-06     3.197885e-33
 2.818382e-06     3.711254e-33
 3.162278e-06     4.306332e-33
 3.548136e-06     4.996094e-33
 3.981071e-06     5.795570e-33
 4.466837e-06     6.722205e-33
 5.011870e-06     7.796176e-33
 5.623413e-06     9.040906e-33
 6.309576e-06     1.048350e-32
 7.079456e-06     1.215537e-32
 7.943284e-06     1.409296e-32
 8.912505e-06     1.633842e-32
 1.000000e-05     1.894069e-32
 1.122019e-05     2.195642e-32
 1.258925e-05     2.545121e-32
 1.412538e-05     2.950124e-32
 1.584893e-05     3.419456e-32
 1.778279e-05     3.963341e-32
 1.995263e-05     4.593617e-32
 2.238721e-05     5.323992e-32
 2.511887e-05     6.170373e-32
 2.818382e-05     7.151168e-32
 3.162278e-05     8.287735e-32
 3.548135e-05     9.604793e-32
 3.981071e-05     1.113100e-31
 4.466837e-05     1.289959e-31
 5.011870e-05     1.494901e-31
 5.623413e-05     1.732390e-31
 6.309577e-05     2.007591e-31
 7.079457e-05     2.326489e-31
 7.943284e-05     2.696027e-31
 8.912505e-05     3.124240e-31
 1.000000e-04     3.620454e-31
 1.122018e-04     4.195456e-31
 1.258926e-04     4.861732e-31
 1.412538e-04     5.631788e-31
 1.584893e-04     6.520788e-31
 1.778279e-04     7.546708e-31
 1.995262e-04     8.730837e-31
 2.238722e-04     1.009868e-30
 2.511887e-04     1.168087e-30
 2.818383e-04     1.351406e-30
 3.162278e-04     1.564186e-30
 3.548134e-04     1.811578e-30
 3.981073e-04     2.099652e-30
 4.466837e-04     2.435551e-30
 5.011873e-04     2.827691e-30
 5.623413e-04     3.285992e-30
 6.309572e-04     3.822173e-30
 7.079460e-04     4.450091e-30
 7.943284e-04     5.186137e-30
 8.912510e-04     6.049740e-30
 1.000000e-03     7.063938e-30
 1.122018e-03     8.256055e-30
 1.258926e-03     9.658561e-30
 1.412538e-03     1.130999e-29
 1.584893e-03     1.325618e-29
 1.778279e-03     1.555166e-29
 1.995262e-03     1.826131e-29
 2.238722e-03     2.146239e-29
 2.511887e-03     2.524688e-29
 2.818383e-03     2.972449e-29
 3.162278e-03     3.502600e-29
 3.548133e-03     4.130737e-29
 3.981073e-03     4.875484e-29
 4.466837e-03     5.759055e-29
 5.011873e-03     6.807997e-29
 5.623413e-03     8.054028e-29
 6.309573e-03     9.535088e-29
 7.079460e-03     1.129662e-28
 7.943284e-03     1.339317e-28
 8.912510e-03     1.589047e-28
 1.000000e-02     1.886812e-28
 1.122019e-02     2.242301e-28
 1.258925e-02     2.667369e-28
 1.412538e-02     3.176615e-28
 1.584894e-02     3.788020e-28
 1.778279e-02     4.523766e-28
 1.995263e-02     5.411169e-28
 2.238721e-02     6.483645e-28
 2.511887e-02     7.781907e-28
 2.818385e-02     9.355139e-28
 3.162277e-02     1.126234e-27
 3.548136e-02     1.357392e-27
 3.981071e-02     1.637323e-27
 4.466837e-02     1.975878e-27
 5.011876e-02     2.384639e-27
 5.623413e-02     2.877217e-27
 6.309576e-02     3.469612e-27
 7.079456e-02     4.180616e-27
 7.943284e-02     5.032385e-27
 8.912515e-02     6.051034e-27
 1.000000e-01     7.267435e-27
 1.122019e-01     8.718255e-27
 1.258925e-01     1.044252e-26
 1.412538e-01     1.247039e-26
 1.584894e-01     1.482380e-26
 1.778279e-01     1.751346e-26
 1.995263e-01     2.053722e-26
 2.238721e-01     2.388022e-26
 2.511887e-01     2.751759e-26
 2.818385e-01     3.141799e-26
 3.162278e-01     3.554729e-26
 3.548135e-01     3.987184e-26
 3.981071e-01     4.436025e-26
 4.466837e-01     4.898477e-26
 5.011876e-01     5.372148e-26
 5.623413e-01     5.855037e-26
 6.309576e-01     6.345534e-26
 7.079456e-01     6.842347e-26
 7.943284e-01     7.344513e-26
 8.912515e-01     7.851323e-26
 1.000000e+00     8.362302e-26
 1.122019e+00     8.877176e-26
 1.258925e+00     9.395815e-26
 1.412538e+00     9.918236e-26
 1.584894e+00     1.044453e-25
 1.778279e+00     1.097486e-25
 1.995263e+00     1.150944e-25
 2.238721e+00     1.204848e-25
 2.511887e+00     1.259224e-25
 2.818385e+00     1.314093e-25
 3.162278e+00     1.369478e-25
 3.548136e+00     1.425405e-25
 3.981071e+00     1.481899e-25
 4.466837e+00     1.538996e-25
 5.011876e+00     1.596739e-25
 5.623413e+00     1.655192e-25
 6.309576e+00     1.714412e-25
 7.079456e+00     1.773222e-25
 7.943284e+00     1.831020e-25
 8.912516e+00     1.887522e-25
 1.000000e+01     1.942824e-25
 1.122019e+01     1.997577e-25
 1.258925e+01     2.053044e-25
 1.412538e+01     2.113304e-25
 1.584894e+01     2.183869e-25
 1.778279e+01     2.271529e-25
 1.995263e+01     2.384333e-25
 2.238721e+01     2.531267e-25
 2.511887e+01     2.721976e-25
 2.818385e+01     2.966541e-25
 3.162278e+01     3.275247e-25
 3.548135e+01     3.658213e-25
 3.981071e+01     4.124693e-25
 4.466837e+01     4.682144e-25
 5.011876e+01     5.334890e-25
 5.623413e+01     6.080726e-25
 6.309576e+01     6.889286e-25
 7.079456e+01     7.806725e-25
 7.943284e+01     8.857991e-25
 8.912515e+01     1.007747e-24
 1.000000e+02     1.144393e-24
 1.120000e+02     1.301058e-24
 1.250000e+02     1.475788e-24
 1.400000e+02     1.683312e-24
 1.550000e+02     1.894244e-24
 1.650000e+02     2.034820e-24
 1.750000e+02     2.171653e-24
 1.850000e+02     2.306315e-24
 1.900000e+02     2.371524e-24
 1.950000e+02     2.436071e-24
 2.000000e+02     2.501470e-24
 2.050000e+02     2.569943e-24
 2.100000e+02     2.646021e-24
 2.150000e+02     2.739761e-24
 2.180000e+02     2.812594e-24
 2.210000e+02     2.908534e-24
 2.240000e+02     3.035883e-24
 2.260000e+02     3.151211e-24
 2.270000e+02     3.217775e-24
 2.275000e+02     3.253701e-24
 2.278400e+02     3.279214e-24
 2.380000e+02     3.841581e-24
 2.500000e+02     4.434400e-24
 2.700000e+02     5.639794e-24
 2.900000e+02     6.987474e-24
 3.035000e+02     7.920222e-24
 3.037800e+02     9.378961e-24
 3.045000e+02     9.439610e-24
 3.060000e+02     9.569519e-24
 3.080000e+02     9.742145e-24
 3.100000e+02     9.914276e-24
 3.120000e+02     1.008481e-23
 3.150000e+02     1.034110e-23
 3.200000e+02     1.077313e-23
 3.250000e+02     1.120910e-23
 3.300000e+02     1.170219e-23
 3.400000e+02     1.257498e-23
 3.600000e+02     1.441315e-23
 3.800000e+02     1.631501e-23
 4.050000e+02     1.884596e-23
 4.250000e+02     2.078622e-23
 4.500000e+02     2.323262e-23
 4.650000e+02     2.471678e-23
 4.750000e+02     2.571276e-23
 4.820000e+02     2.641513e-23
 4.870000e+02     2.691771e-23
 4.910000e+02     2.731977e-23
 4.950000e+02     2.772362e-23
 4.980000e+02     2.801455e-23
 5.000000e+02     2.820870e-23
 5.020000e+02     2.847860e-23
 5.039800e+02     2.866894e-23
 5.100000e+02     2.924472e-23
 5.250000e+02     3.075896e-23
 5.600000e+02     3.448782e-23
 6.000000e+02     3.881522e-23
 6.500000e+02     4.443992e-23
 7.000000e+02     5.025684e-23
 7.500000e+02     5.683154e-23
 8.000000e+02     6.409192e-23
 8.300000e+02     6.882451e-23
 8.600000e+02     7.370373e-23
 8.800000e+02     7.739244e-23
 8.900000e+02     7.919029e-23
 8.960000e+02     8.027603e-23
 9.000000e+02     8.100601e-23
 9.030000e+02     8.155684e-23
 9.060000e+02     8.211032e-23
 9.090000e+02     8.285404e-23
 9.117800e+02     8.337384e-23
 9.300000e+02     1.095110e-22
 9.500000e+02     1.302617e-22
 9.750000e+02     1.674790e-22
 9.900000e+02     2.009454e-22
 1.005000e+03     2.416560e-22
 1.025000e+03     2.850203e-22
 1.045000e+03     3.201334e-22
 1.065000e+03     3.956842e-22
 1.085000e+03     4.525034e-22
 1.105000e+03     5.166123e-22
 1.125000e+03     5.973370e-22
 1.145000e+03     6.737058e-22
 1.165000e+03     7.599262e-22
 1.185000e+03     8.431070e-22
 1.205000e+03     9.262445e-22
 1.215600e+03     9.670920e-22
 1.215670e+03     9.814615e-22
 1.216000e+03     9.826893e-22
 1.218000e+03     9.892722e-22
 1.221000e+03     9.983931e-22
 1.225000e+03     1.011398e-21
 1.230000e+03     1.028803e-21
 1.240000e+03     1.073048e-21
 1.250000e+03     1.120251e-21
 1.265000e+03     1.203712e-21
 1.285000e+03     1.311222e-21
 1.305000e+03     1.424686e-21
 1.325000e+03     1.544453e-21
 1.345000e+03     1.667183e-21
 1.365000e+03     1.793922e-21
 1.385000e+03     1.916513e-21
 1.405000e+03     2.041476e-21
 1.425000e+03     2.164535e-21
 1.442000e+03     2.275155e-21
 1.455000e+03     2.361983e-21
 1.475000e+03     2.500095e-21
 1.517000e+03     2.774978e-21
 1.595000e+03     3.270598e-21
 1.672000e+03     3.787717e-21
 1.745000e+03     4.272495e-21
 1.825000e+03     4.820375e-21
 1.905000e+03     5.343349e-21
 1.984000e+03     5.844085e-21
 2.065000e+03     6.332124e-21
 2.135000e+03     6.722067e-21
 2.215000e+03     7.148983e-21
 2.295000e+03     7.562803e-21
 2.375000e+03     7.982971e-21
 2.455000e+03     8.405608e-21
 2.525000e+03     8.783357e-21
 2.605000e+03     9.221010e-21
 2.685000e+03     9.703277e-21
 2.765000e+03     1.016884e-20
 2.845000e+03     1.060242e-20
 2.950000e+03     1.122449e-20
 3.110000e+03     1.221637e-20
 3.270000e+03     1.319477e-20
 3.430000e+03     1.419141e-20
 3.590000e+03     1.516898e-20
 3.730000e+03     1.606458e-20
 3.890000e+03     1.747453e-20
 4.050000e+03     1.894595e-20
 4.210000e+03     2.104842e-20
 4.370000e+03     2.306086e-20
 4.530000e+03     2.525159e-20
 4.690000e+03     2.750994e-20
 4.850000e+03     2.978167e-20
 5.010000e+03     3.191816e-20
 5.170000e+03     3.409475e-20
 5.330000e+03     3.625641e-20
 5.490000e+03     3.846974e-20
 5.650000e+03     4.068794e-20
 5.810000e+03     4.297209e-20
 5.970000e+03     4.510908e-20
 6.130000e+03     4.728652e-20
 6.290000e+03     4.938405e-20
 6.450000e+03     5.141308e-20
 6.610000e+03     5.344413e-20
 6.770000e+03     5.540943e-20
 6.930000e+03     5.733093e-20
 7.090000e+03     5.920891e-20
 7.250000e+03     6.100355e-20
 7.410000e+03     6.277241e-20
 7.570000e+03     6.450987e-20
 7.730000e+03     6.621631e-20
 7.890000e+03     6.788493e-20
 8.050000e+03     6.950382e-20
 8.210000e+03     7.106575e-20
 8.370000e+03     7.259698e-20
 8.530000e+03     7.407687e-20
 8.690000e+03     7.549953e-20
 8.850000e+03     7.694165e-20
 9.010000e+03     7.833266e-20
 9.170000e+03     7.967570e-20
 9.330000e+03     8.103340e-20
 9.490000e+03     8.236306e-20
 9.650000e+03     8.366740e-20
 9.810000e+03     8.490247e-20
 9.970000e+03     8.613514e-20
 1.050000e+04     8.994426e-20
 1.150000e+04     9.573880e-20
 1.250000e+04     1.006349e-19
 1.350000e+04     1.046252e-19
 1.450000e+04     1.080468e-19
 1.550000e+04     1.111372e-19
 1.650000e+04     1.138526e-19
 1.750000e+04     1.157618e-19
 1.850000e+04     1.167172e-19
 1.950000e+04     1.168387e-19
 2.050000e+04     1.162389e-19
 2.150000e+04     1.151481e-19
 2.250000e+04     1.136744e-19
 2.350000e+04     1.120009e-19
 2.450000e+04     1.100607e-19
 2.550000e+04     1.080158e-19
 2.650000e+04     1.059785e-19
 2.750000e+04     1.038684e-19
 2.850000e+04     1.018083e-19
 2.950000e+04     9.991080e-20
 3.050000e+04     9.816442e-20
 3.150000e+04     9.664219e-20
 3.250000e+04     9.538534e-20
 3.350000e+04     9.438615e-20
 3.450000e+04     9.365286e-20
 3.550000e+04     9.312395e-20
 3.650000e+04     9.261223e-20
 3.750000e+04     9.223272e-20
 3.850000e+04     9.188979e-20
 3.950000e+04     9.173655e-20
 4.050000e+04     9.170301e-20
 4.150000e+04     9.173234e-20
 4.250000e+04     9.181553e-20
 4.350000e+04     9.202440e-20
 4.450000e+04     9.233026e-20
 4.550000e+04     9.270778e-20
 4.650000e+04     9.315856e-20
 4.750000e+04     9.369768e-20
 4.850000e+04     9.429616e-20
 4.950000e+04     9.492875e-20
 5.050000e+04     9.559653e-20
 5.150000e+04     9.630339e-20
 5.250000e+04     9.703731e-20
 5.350000e+04     9.716756e-20
 5.450000e+04     9.697644e-20
 5.550000e+04     9.702257e-20
 5.650000e+04     9.701212e-20
 5.750000e+04     9.749993e-20
 5.850000e+04     9.774779e-20
 5.950000e+04     9.791685e-20
 6.050000e+04     9.882858e-20
 6.150000e+04     1.028106e-19
 6.250000e+04     1.103403e-19
 6.350000e+04     1.155718e-19
 6.450000e+04     1.182224e-19
 6.550000e+04     1.205541e-19
 6.650010e+04     1.228407e-19
 6.750010e+04     1.253228e-19
 6.850010e+04     1.286840e-19
 6.950010e+04     1.322293e-19
 7.020000e+04     1.349473e-19
 7.100000e+04     1.377572e-19
 7.180000e+04     1.410441e-19
 7.260000e+04     1.449293e-19
 7.340000e+04     1.495844e-19
 7.420000e+04     1.549190e-19
 7.500000e+04     1.617192e-19
 7.580000e+04     1.705127e-19
 7.660000e+04     1.804967e-19
 7.740000e+04     1.902374e-19
 7.820000e+04     1.995315e-19
 7.900000e+04     2.082238e-19
 7.980000e+04     2.162120e-19
 8.060000e+04     2.234507e-19
 8.140000e+04     2.296457e-19
 8.220000e+04     2.348107e-19
 8.300000e+04     2.396917e-19
 8.380000e+04     2.444583e-19
 8.460000e+04     2.492650e-19
 8.540000e+04     2.543737e-19
 8.620000e+04     2.597073e-19
 8.700000e+04     2.650764e-19
 8.780000e+04     2.693911e-19
 8.860000e+04     2.724124e-19
 8.940000e+04     2.745801e-19
 9.020000e+04     2.760308e-19
 9.100000e+04     2.770665e-19
 9.180000e+04     2.775620e-19
 9.260000e+04     2.777478e-19
 9.340000e+04     2.777033e-19
 9.420000e+04     2.774544e-19
 9.500000e+04     2.770099e-19
 9.580000e+04     2.765062e-19
 9.660000e+04     2.762032e-19
 9.740000e+04     2.757272e-19
 9.820000e+04     2.745385e-19
 9.900000e+04     2.730605e-19
 9.980000e+04     2.714269e-19
 1.006000e+05     2.697386e-19
 1.020000e+05     2.666993e-19
 1.040000e+05     2.620260e-19
 1.060000e+05     2.586494e-19
 1.080000e+05     2.564448e-19
 1.100000e+05     2.552234e-19
 1.120000e+05     2.603869e-19
 1.140000e+05     2.730922e-19
 1.160000e+05     2.790193e-19
 1.180000e+05     2.831275e-19
 1.200000e+05     2.848275e-19
 1.220000e+05     2.886612e-19
 1.240000e+05     2.948495e-19
 1.260000e+05     3.027793e-19
 1.280000e+05     3.091796e-19
 1.300000e+05     3.159872e-19
 1.320000e+05     3.191058e-19
 1.340000e+05     3.215768e-19
 1.360000e+05     3.230338e-19
 1.380000e+05     3.220164e-19
 1.400000e+05     3.244758e-19
 1.420000e+05     3.258384e-19
 1.440000e+05     3.260233e-19
 1.460000e+05     3.252735e-19
 1.480000e+05     3.247631e-19
 1.500000e+05     3.246882e-19
 1.520000e+05     3.241865e-19
 1.540000e+05     3.232944e-19
 1.560000e+05     3.247810e-19
 1.580000e+05     3.262320e-19
 1.600000e+05     3.274829e-19
 1.620000e+05     3.280817e-19
 1.640000e+05     3.303028e-19
 1.660000e+05     3.349975e-19
 1.680000e+05     3.389804e-19
 1.700000e+05     3.445023e-19
 1.720000e+05     3.504163e-19
 1.740000e+05     3.561083e-19
 1.760000e+05     3.606564e-19
 1.780000e+05     3.648031e-19
 1.800000e+05     3.688405e-19
 1.820000e+05     3.717426e-19
 1.840000e+05     3.757582e-19
 1.860000e+05     3.800904e-19
 1.880000e+05     3.866664e-19
 1.900000e+05     3.921782e-19
 1.920000e+05     3.969855e-19
 1.940000e+05     4.010563e-19
 1.960000e+05     4.056379e-19
 1.980000e+05     4.100406e-19
 2.000000e+05     4.144363e-19
 2.020000e+05     4.189958e-19
 2.040000e+05     4.238563e-19
 2.060000e+05     4.287716e-19
 2.080000e+05     4.338168e-19
 2.100000e+05     4.390572e-19
 2.120000e+05     4.443220e-19
 2.140000e+05     4.495844e-19
 2.160000e+05     4.553188e-19
 2.180000e+05     4.612097e-19
 2.200000e+05     4.670651e-19
 2.220000e+05     4.732498e-19
 2.240000e+05     4.797050e-19
 2.260000e+05     4.860818e-19
 2.280000e+05     4.928468e-19
 2.300000e+05     4.998016e-19
 2.320000e+05     5.069191e-19
 2.340000e+05     5.143136e-19
 2.360000e+05     5.219741e-19
 2.380000e+05     5.297376e-19
 2.400000e+05     5.376376e-19
 2.420000e+05     5.457748e-19
 2.440000e+05     5.541851e-19
 2.460000e+05     5.628662e-19
 2.480000e+05     5.717363e-19
 2.500000e+05     5.806840e-19
 2.520000e+05     5.897518e-19
 2.540000e+05     5.990569e-19
 2.560000e+05     6.087278e-19
 2.580000e+05     6.189981e-19
 2.600000e+05     6.297912e-19
 2.620000e+05     6.403757e-19
 2.640000e+05     6.507691e-19
 2.660000e+05     6.613780e-19
 2.680000e+05     6.722238e-19
 2.700000e+05     6.832754e-19
 2.720000e+05     6.944954e-19
 2.740000e+05     7.058975e-19
 2.760000e+05     7.174132e-19
 2.780000e+05     7.292198e-19
 2.800000e+05     7.414690e-19
 2.820000e+05     7.542378e-19
 2.840000e+05     7.672302e-19
 2.860000e+05     7.800509e-19
 2.880000e+05     7.929995e-19
 2.900000e+05     8.062084e-19
 2.920000e+05     8.197119e-19
 2.940000e+05     8.334038e-19
 2.960000e+05     8.472570e-19
 2.980000e+05     8.613932e-19
 3.000000e+05     8.757818e-19
 3.020000e+05     8.902649e-19
 3.040000e+05     9.051197e-19
 3.060000e+05     9.202312e-19
 3.080000e+05     9.355721e-19
 3.100000e+05     9.511403e-19
 3.120000e+05     9.669155e-19
 3.140000e+05     9.829840e-19
 3.160000e+05     9.994043e-19
 3.180000e+05     1.016112e-18
 3.200000e+05     1.033030e-18
 3.220000e+05     1.050294e-18
 3.240000e+05     1.067900e-18
 3.260000e+05     1.085888e-18
 3.280000e+05     1.104220e-18
 3.300000e+05     1.122946e-18
 3.320000e+05     1.142205e-18
 3.340000e+05     1.163439e-18
 3.360000e+05     1.187498e-18
 3.380000e+05     1.209543e-18
 3.400000e+05     1.229489e-18
 3.420000e+05     1.249316e-18
 3.440000e+05     1.269386e-18
 3.460000e+05     1.290423e-18
 3.480000e+05     1.316084e-18
 3.500000e+05     1.344096e-18
 3.520000e+05     1.367498e-18
 3.540000e+05     1.388743e-18
 3.560000e+05     1.410375e-18
 3.580000e+05     1.431863e-18
 3.600000e+05     1.453586e-18
 3.620000e+05     1.476094e-18
 3.640000e+05     1.498569e-18
 3.660000e+05     1.521291e-18
 3.680000e+05     1.544394e-18
 3.700000e+05     1.568217e-18
 3.720000e+05     1.590577e-18
 3.740000e+05     1.614283e-18
 3.760000e+05     1.638890e-18
 3.780000e+05     1.663317e-18
 3.800000e+05     1.687242e-18
 3.820000e+05     1.711479e-18
 3.840000e+05     1.736742e-18
 3.860000e+05     1.761920e-18
 3.880000e+05     1.787249e-18
 3.900000e+05     1.813013e-18
 3.920000e+05     1.839361e-18
 4.320000e+05     2.389207e-18
 4.760000e+05     3.063531e-18
 5.250000e+05     3.880722e-18
 5.790000e+05     4.847127e-18
 6.390000e+05     5.992620e-18
 7.040000e+05     7.305085e-18
 7.760000e+05     8.870449e-18
 8.560000e+05     1.068712e-17
 9.430000e+05     1.261585e-17
 1.040000e+06     1.454142e-17
 1.147000e+06     1.626357e-17
 1.264000e+06     1.759768e-17
 1.394000e+06     1.842203e-17
 1.537000e+06     1.865064e-17
 1.694000e+06     1.828556e-17
 1.868000e+06     1.738343e-17
 2.059000e+06     1.606588e-17
 2.270000e+06     1.446139e-17
 2.503000e+06     1.270892e-17
 2.760000e+06     1.093301e-17
 3.043000e+06     9.233228e-18
 3.354000e+06     7.677395e-18
 3.698000e+06     6.293297e-18
