## EBL from Khaire & Srianand 2018; Q20 Model with alpha=-2.0 
## Column1:wavelength (Angstrom);  Column2:EBL specific intensity J_nu (erg/s/cm^2/Hz/Sr)
## ===========================================================================================
 1.000000e-08     7.031763e-37
 1.122019e-08     1.024467e-36
 1.258925e-08     1.480123e-36
 1.412538e-08     2.109657e-36
 1.584893e-08     2.958782e-36
 1.778279e-08     4.080047e-36
 1.995263e-08     5.533651e-36
 2.238721e-08     7.388455e-36
 2.511887e-08     9.723290e-36
 2.818382e-08     1.262828e-35
 3.162278e-08     1.620665e-35
 3.548135e-08     2.057657e-35
 3.981071e-08     2.587359e-35
 4.466837e-08     3.225350e-35
 5.011870e-08     3.989537e-35
 5.623413e-08     4.900578e-35
 6.309576e-08     5.982286e-35
 7.079456e-08     7.262162e-35
 7.943284e-08     8.772044e-35
 8.912505e-08     1.054871e-34
 1.000000e-07     1.263480e-34
 1.122019e-07     1.507964e-34
 1.258925e-07     1.794039e-34
 1.412538e-07     2.128335e-34
 1.584892e-07     2.518521e-34
 1.778279e-07     2.973505e-34
 1.995263e-07     3.503594e-34
 2.238721e-07     4.120735e-34
 2.511887e-07     4.838792e-34
 2.818382e-07     5.673810e-34
 3.162278e-07     6.644414e-34
 3.548136e-07     7.772167e-34
 3.981071e-07     9.082050e-34
 4.466837e-07     1.060307e-33
 5.011870e-07     1.236876e-33
 5.623413e-07     1.441808e-33
 6.309576e-07     1.679610e-33
 7.079456e-07     1.955506e-33
 7.943284e-07     2.275556e-33
 8.912505e-07     2.646775e-33
 1.000000e-06     3.077301e-33
 1.122019e-06     3.576558e-33
 1.258925e-06     4.155459e-33
 1.412538e-06     4.826677e-33
 1.584893e-06     5.604864e-33
 1.778279e-06     6.507025e-33
 1.995263e-06     7.552858e-33
 2.238721e-06     8.765174e-33
 2.511887e-06     1.017043e-32
 2.818382e-06     1.179926e-32
 3.162278e-06     1.368721e-32
 3.548136e-06     1.587541e-32
 3.981071e-06     1.841153e-32
 4.466837e-06     2.135088e-32
 5.011870e-06     2.475743e-32
 5.623413e-06     2.870545e-32
 6.309576e-06     3.328090e-32
 7.079456e-06     3.858336e-32
 7.943284e-06     4.472841e-32
 8.912505e-06     5.184970e-32
 1.000000e-05     6.010242e-32
 1.122019e-05     6.966614e-32
 1.258925e-05     8.074894e-32
 1.412538e-05     9.359229e-32
 1.584893e-05     1.084755e-31
 1.778279e-05     1.257226e-31
 1.995263e-05     1.457091e-31
 2.238721e-05     1.688695e-31
 2.511887e-05     1.957082e-31
 2.818382e-05     2.268090e-31
 3.162278e-05     2.628490e-31
 3.548135e-05     3.046123e-31
 3.981071e-05     3.530072e-31
 4.466837e-05     4.090875e-31
 5.011870e-05     4.740724e-31
 5.623413e-05     5.493772e-31
 6.309577e-05     6.366399e-31
 7.079457e-05     7.377578e-31
 7.943284e-05     8.549329e-31
 8.912505e-05     9.907128e-31
 1.000000e-04     1.148054e-30
 1.122018e-04     1.330377e-30
 1.258926e-04     1.541606e-30
 1.412538e-04     1.784456e-30
 1.584893e-04     2.063815e-30
 1.778279e-04     2.385877e-30
 1.995262e-04     2.758112e-30
 2.238722e-04     3.189382e-30
 2.511887e-04     3.690098e-30
 2.818383e-04     4.272463e-30
 3.162278e-04     4.950778e-30
 3.548134e-04     5.741837e-30
 3.981073e-04     6.665411e-30
 4.466837e-04     7.744811e-30
 5.011873e-04     9.007580e-30
 5.623413e-04     1.048630e-29
 6.309572e-04     1.221953e-29
 7.079460e-04     1.425298e-29
 7.943284e-04     1.664080e-29
 8.912510e-04     1.944731e-29
 1.000000e-03     2.274882e-29
 1.122018e-03     2.663601e-29
 1.258926e-03     3.121675e-29
 1.412538e-03     3.661916e-29
 1.584893e-03     4.299582e-29
 1.778279e-03     5.052844e-29
 1.995262e-03     5.943341e-29
 2.238722e-03     6.996869e-29
 2.511887e-03     8.244164e-29
 2.818383e-03     9.721911e-29
 3.162278e-03     1.147389e-28
 3.548133e-03     1.355234e-28
 3.981073e-03     1.601967e-28
 4.466837e-03     1.895041e-28
 5.011873e-03     2.243368e-28
 5.623413e-03     2.657607e-28
 6.309573e-03     3.150531e-28
 7.079460e-03     3.737483e-28
 7.943284e-03     4.436969e-28
 8.912510e-03     5.271457e-28
 1.000000e-02     6.268406e-28
 1.122019e-02     7.461618e-28
 1.258925e-02     8.892878e-28
 1.412538e-02     1.061405e-27
 1.584894e-02     1.268928e-27
 1.778279e-02     1.519757e-27
 1.995263e-02     1.823565e-27
 2.238721e-02     2.192061e-27
 2.511887e-02     2.639327e-27
 2.818385e-02     3.182131e-27
 3.162277e-02     3.840307e-27
 3.548136e-02     4.637235e-27
 3.981071e-02     5.600309e-27
 4.466837e-02     6.761673e-27
 5.011876e-02     8.158977e-27
 5.623413e-02     9.836394e-27
 6.309576e-02     1.184595e-26
 7.079456e-02     1.424891e-26
 7.943284e-02     1.711778e-26
 8.912515e-02     2.053842e-26
 1.000000e-01     2.461272e-26
 1.122019e-01     2.946277e-26
 1.258925e-01     3.518436e-26
 1.412538e-01     4.177135e-26
 1.584894e-01     4.917818e-26
 1.778279e-01     5.733298e-26
 1.995263e-01     6.615008e-26
 2.238721e-01     7.553994e-26
 2.511887e-01     8.541672e-26
 2.818385e-01     9.570187e-26
 3.162278e-01     1.063260e-25
 3.548135e-01     1.172295e-25
 3.981071e-01     1.283621e-25
 4.466837e-01     1.396824e-25
 5.011876e-01     1.511572e-25
 5.623413e-01     1.627608e-25
 6.309576e-01     1.744746e-25
 7.079456e-01     1.862850e-25
 7.943284e-01     1.981844e-25
 8.912515e-01     2.101688e-25
 1.000000e+00     2.222376e-25
 1.122019e+00     2.343930e-25
 1.258925e+00     2.466385e-25
 1.412538e+00     2.589795e-25
 1.584894e+00     2.714215e-25
 1.778279e+00     2.839702e-25
 1.995263e+00     2.966314e-25
 2.238721e+00     3.094103e-25
 2.511887e+00     3.223121e-25
 2.818385e+00     3.353416e-25
 3.162278e+00     3.485039e-25
 3.548136e+00     3.618059e-25
 3.981071e+00     3.752563e-25
 4.466837e+00     3.888683e-25
 5.011876e+00     4.026608e-25
 5.623413e+00     4.166615e-25
 6.309576e+00     4.308667e-25
 7.079456e+00     4.441292e-25
 7.943284e+00     4.565497e-25
 8.912516e+00     4.685384e-25
 1.000000e+01     4.806341e-25
 1.122019e+01     4.934137e-25
 1.258925e+01     5.074709e-25
 1.412538e+01     5.255966e-25
 1.584894e+01     5.501420e-25
 1.778279e+01     5.833683e-25
 1.995263e+01     6.275890e-25
 2.238721e+01     6.852178e-25
 2.511887e+01     7.588052e-25
 2.818385e+01     8.510041e-25
 3.162278e+01     9.644415e-25
 3.548135e+01     1.101508e-24
 3.981071e+01     1.264138e-24
 4.466837e+01     1.452931e-24
 5.011876e+01     1.652899e-24
 5.623413e+01     1.895436e-24
 6.309576e+01     2.183229e-24
 7.079456e+01     2.502737e-24
 7.943284e+01     2.867037e-24
 8.912515e+01     3.285859e-24
 1.000000e+02     3.802443e-24
 1.120000e+02     4.413039e-24
 1.250000e+02     5.102156e-24
 1.400000e+02     5.926223e-24
 1.550000e+02     6.746241e-24
 1.650000e+02     7.300261e-24
 1.750000e+02     7.841387e-24
 1.850000e+02     8.375896e-24
 1.900000e+02     8.635249e-24
 1.950000e+02     8.898527e-24
 2.000000e+02     9.170076e-24
 2.050000e+02     9.470156e-24
 2.100000e+02     9.812813e-24
 2.150000e+02     1.026057e-23
 2.180000e+02     1.064748e-23
 2.210000e+02     1.115055e-23
 2.240000e+02     1.185324e-23
 2.260000e+02     1.247027e-23
 2.270000e+02     1.282737e-23
 2.275000e+02     1.301958e-23
 2.278400e+02     1.317544e-23
 2.380000e+02     1.586710e-23
 2.500000e+02     1.926639e-23
 2.700000e+02     2.521388e-23
 2.900000e+02     3.142017e-23
 3.035000e+02     3.549597e-23
 3.037800e+02     4.559937e-23
 3.045000e+02     4.583080e-23
 3.060000e+02     4.634708e-23
 3.080000e+02     4.703216e-23
 3.100000e+02     4.770699e-23
 3.120000e+02     4.839301e-23
 3.150000e+02     4.941838e-23
 3.200000e+02     5.106065e-23
 3.250000e+02     5.264297e-23
 3.300000e+02     5.421814e-23
 3.400000e+02     5.746427e-23
 3.600000e+02     6.321893e-23
 3.800000e+02     6.887323e-23
 4.050000e+02     7.540941e-23
 4.250000e+02     8.062023e-23
 4.500000e+02     8.794230e-23
 4.650000e+02     9.213925e-23
 4.750000e+02     9.558366e-23
 4.820000e+02     9.781435e-23
 4.870000e+02     9.941013e-23
 4.910000e+02     1.006007e-22
 4.950000e+02     1.018141e-22
 4.980000e+02     1.027251e-22
 5.000000e+02     1.033272e-22
 5.020000e+02     1.039390e-22
 5.039800e+02     1.045481e-22
 5.100000e+02     1.064830e-22
 5.250000e+02     1.120801e-22
 5.600000e+02     1.265861e-22
 6.000000e+02     1.426126e-22
 6.500000e+02     1.657586e-22
 7.000000e+02     1.896109e-22
 7.500000e+02     2.157369e-22
 8.000000e+02     2.448114e-22
 8.300000e+02     2.639593e-22
 8.600000e+02     2.845841e-22
 8.800000e+02     2.986037e-22
 8.900000e+02     3.070569e-22
 8.960000e+02     3.115139e-22
 9.000000e+02     3.145525e-22
 9.030000e+02     3.169490e-22
 9.060000e+02     3.193593e-22
 9.090000e+02     3.217836e-22
 9.117800e+02     3.240428e-22
 9.300000e+02     4.556820e-22
 9.500000e+02     4.895496e-22
 9.750000e+02     6.395581e-22
 9.900000e+02     7.025105e-22
 1.005000e+03     8.015602e-22
 1.025000e+03     9.579049e-22
 1.045000e+03     1.087004e-21
 1.065000e+03     1.266401e-21
 1.085000e+03     1.468543e-21
 1.105000e+03     1.690367e-21
 1.125000e+03     1.932609e-21
 1.145000e+03     2.181611e-21
 1.165000e+03     2.450485e-21
 1.185000e+03     2.722071e-21
 1.205000e+03     2.999070e-21
 1.215600e+03     3.136593e-21
 1.215670e+03     3.198265e-21
 1.216000e+03     3.202620e-21
 1.218000e+03     3.228310e-21
 1.221000e+03     3.262310e-21
 1.225000e+03     3.305598e-21
 1.230000e+03     3.362299e-21
 1.240000e+03     3.506400e-21
 1.250000e+03     3.649942e-21
 1.265000e+03     3.906051e-21
 1.285000e+03     4.261067e-21
 1.305000e+03     4.646336e-21
 1.325000e+03     5.026241e-21
 1.345000e+03     5.427891e-21
 1.365000e+03     5.830697e-21
 1.385000e+03     6.244639e-21
 1.405000e+03     6.649828e-21
 1.425000e+03     7.058890e-21
 1.442000e+03     7.410641e-21
 1.455000e+03     7.689724e-21
 1.475000e+03     8.132614e-21
 1.517000e+03     9.006155e-21
 1.595000e+03     1.058239e-20
 1.672000e+03     1.215248e-20
 1.745000e+03     1.360068e-20
 1.825000e+03     1.517721e-20
 1.905000e+03     1.660225e-20
 1.984000e+03     1.790250e-20
 2.065000e+03     1.908790e-20
 2.135000e+03     1.996930e-20
 2.215000e+03     2.087607e-20
 2.295000e+03     2.172121e-20
 2.375000e+03     2.257335e-20
 2.455000e+03     2.342404e-20
 2.525000e+03     2.417783e-20
 2.605000e+03     2.503483e-20
 2.685000e+03     2.599387e-20
 2.765000e+03     2.691458e-20
 2.845000e+03     2.770598e-20
 2.950000e+03     2.891467e-20
 3.110000e+03     3.075851e-20
 3.270000e+03     3.252414e-20
 3.430000e+03     3.427611e-20
 3.590000e+03     3.598574e-20
 3.730000e+03     3.754995e-20
 3.890000e+03     4.052569e-20
 4.050000e+03     4.352091e-20
 4.210000e+03     4.851684e-20
 4.370000e+03     5.300265e-20
 4.530000e+03     5.761718e-20
 4.690000e+03     6.236861e-20
 4.850000e+03     6.680519e-20
 5.010000e+03     7.080014e-20
 5.170000e+03     7.498617e-20
 5.330000e+03     7.893150e-20
 5.490000e+03     8.293126e-20
 5.650000e+03     8.683750e-20
 5.810000e+03     9.072433e-20
 5.970000e+03     9.430208e-20
 6.130000e+03     9.781103e-20
 6.290000e+03     1.011050e-19
 6.450000e+03     1.042761e-19
 6.610000e+03     1.072284e-19
 6.770000e+03     1.101948e-19
 6.930000e+03     1.129573e-19
 7.090000e+03     1.155884e-19
 7.250000e+03     1.180823e-19
 7.410000e+03     1.204803e-19
 7.570000e+03     1.228007e-19
 7.730000e+03     1.251162e-19
 7.890000e+03     1.273480e-19
 8.050000e+03     1.294336e-19
 8.210000e+03     1.314656e-19
 8.370000e+03     1.334448e-19
 8.530000e+03     1.352930e-19
 8.690000e+03     1.371084e-19
 8.850000e+03     1.389766e-19
 9.010000e+03     1.407767e-19
 9.170000e+03     1.425264e-19
 9.330000e+03     1.442931e-19
 9.490000e+03     1.462070e-19
 9.650000e+03     1.477775e-19
 9.810000e+03     1.494721e-19
 9.970000e+03     1.511621e-19
 1.050000e+04     1.560846e-19
 1.150000e+04     1.628708e-19
 1.250000e+04     1.684481e-19
 1.350000e+04     1.727292e-19
 1.450000e+04     1.764044e-19
 1.550000e+04     1.800371e-19
 1.650000e+04     1.831291e-19
 1.750000e+04     1.846632e-19
 1.850000e+04     1.844765e-19
 1.950000e+04     1.828025e-19
 2.050000e+04     1.801739e-19
 2.150000e+04     1.770094e-19
 2.250000e+04     1.732696e-19
 2.350000e+04     1.686633e-19
 2.450000e+04     1.629946e-19
 2.550000e+04     1.576993e-19
 2.650000e+04     1.523368e-19
 2.750000e+04     1.474115e-19
 2.850000e+04     1.427743e-19
 2.950000e+04     1.382926e-19
 3.050000e+04     1.337539e-19
 3.150000e+04     1.295281e-19
 3.250000e+04     1.255907e-19
 3.350000e+04     1.217607e-19
 3.450000e+04     1.180288e-19
 3.550000e+04     1.143870e-19
 3.650000e+04     1.108799e-19
 3.750000e+04     1.076078e-19
 3.850000e+04     1.045276e-19
 3.950000e+04     1.015985e-19
 4.050000e+04     9.879918e-20
 4.150000e+04     9.614928e-20
 4.250000e+04     9.362394e-20
 4.350000e+04     9.115454e-20
 4.450000e+04     8.875532e-20
 4.550000e+04     8.639313e-20
 4.650000e+04     8.405658e-20
 4.750000e+04     8.186788e-20
 4.850000e+04     7.978830e-20
 4.950000e+04     7.778121e-20
 5.050000e+04     7.601783e-20
 5.150000e+04     7.469140e-20
 5.250000e+04     7.453075e-20
 5.350000e+04     7.573601e-20
 5.450000e+04     7.752862e-20
 5.550000e+04     7.936587e-20
 5.650000e+04     8.205589e-20
 5.750000e+04     8.553923e-20
 5.850000e+04     8.897660e-20
 5.950000e+04     9.337789e-20
 6.050000e+04     9.996393e-20
 6.150000e+04     1.093317e-19
 6.250000e+04     1.260877e-19
 6.350000e+04     1.388152e-19
 6.450000e+04     1.457792e-19
 6.550000e+04     1.495733e-19
 6.650010e+04     1.546111e-19
 6.750010e+04     1.594214e-19
 6.850010e+04     1.629119e-19
 6.950010e+04     1.690063e-19
 7.020000e+04     1.741507e-19
 7.100000e+04     1.795005e-19
 7.180000e+04     1.860812e-19
 7.260000e+04     1.946110e-19
 7.340000e+04     2.047418e-19
 7.420000e+04     2.176633e-19
 7.500000e+04     2.343239e-19
 7.580000e+04     2.538928e-19
 7.660000e+04     2.743833e-19
 7.740000e+04     2.932105e-19
 7.820000e+04     3.101145e-19
 7.900000e+04     3.244238e-19
 7.980000e+04     3.348742e-19
 8.060000e+04     3.429322e-19
 8.140000e+04     3.490478e-19
 8.220000e+04     3.533352e-19
 8.300000e+04     3.571532e-19
 8.380000e+04     3.610479e-19
 8.460000e+04     3.647612e-19
 8.540000e+04     3.685275e-19
 8.620000e+04     3.719463e-19
 8.700000e+04     3.741525e-19
 8.780000e+04     3.743163e-19
 8.860000e+04     3.724771e-19
 8.940000e+04     3.693214e-19
 9.020000e+04     3.655116e-19
 9.100000e+04     3.614334e-19
 9.180000e+04     3.571362e-19
 9.260000e+04     3.525589e-19
 9.340000e+04     3.478132e-19
 9.420000e+04     3.430833e-19
 9.500000e+04     3.384799e-19
 9.580000e+04     3.339361e-19
 9.660000e+04     3.297580e-19
 9.740000e+04     3.257495e-19
 9.820000e+04     3.213491e-19
 9.900000e+04     3.169748e-19
 9.980000e+04     3.127974e-19
 1.006000e+05     3.090272e-19
 1.020000e+05     3.027624e-19
 1.040000e+05     2.951321e-19
 1.060000e+05     2.923438e-19
 1.080000e+05     2.929676e-19
 1.100000e+05     2.936959e-19
 1.120000e+05     3.044073e-19
 1.140000e+05     3.305356e-19
 1.160000e+05     3.444987e-19
 1.180000e+05     3.462143e-19
 1.200000e+05     3.549300e-19
 1.220000e+05     3.655298e-19
 1.240000e+05     3.738281e-19
 1.260000e+05     3.850616e-19
 1.280000e+05     4.034709e-19
 1.300000e+05     4.184830e-19
 1.320000e+05     4.238080e-19
 1.340000e+05     4.265504e-19
 1.360000e+05     4.331217e-19
 1.380000e+05     4.379742e-19
 1.400000e+05     4.381382e-19
 1.420000e+05     4.442518e-19
 1.440000e+05     4.483349e-19
 1.460000e+05     4.489427e-19
 1.480000e+05     4.539022e-19
 1.500000e+05     4.586613e-19
 1.520000e+05     4.614467e-19
 1.540000e+05     4.666600e-19
 1.560000e+05     4.748466e-19
 1.580000e+05     4.810573e-19
 1.600000e+05     4.879540e-19
 1.620000e+05     4.963487e-19
 1.640000e+05     5.060405e-19
 1.660000e+05     5.202879e-19
 1.680000e+05     5.329999e-19
 1.700000e+05     5.469419e-19
 1.720000e+05     5.607820e-19
 1.740000e+05     5.739932e-19
 1.760000e+05     5.854434e-19
 1.780000e+05     5.950260e-19
 1.800000e+05     6.040487e-19
 1.820000e+05     6.145466e-19
 1.840000e+05     6.242517e-19
 1.860000e+05     6.337939e-19
 1.880000e+05     6.495099e-19
 1.900000e+05     6.614657e-19
 1.920000e+05     6.729992e-19
 1.940000e+05     6.841871e-19
 1.960000e+05     6.951831e-19
 1.980000e+05     7.075415e-19
 2.000000e+05     7.207823e-19
 2.020000e+05     7.340668e-19
 2.040000e+05     7.481092e-19
 2.060000e+05     7.626633e-19
 2.080000e+05     7.774308e-19
 2.100000e+05     7.930947e-19
 2.120000e+05     8.095913e-19
 2.140000e+05     8.258601e-19
 2.160000e+05     8.434636e-19
 2.180000e+05     8.626169e-19
 2.200000e+05     8.809853e-19
 2.220000e+05     8.996383e-19
 2.240000e+05     9.202887e-19
 2.260000e+05     9.416282e-19
 2.280000e+05     9.627916e-19
 2.300000e+05     9.843775e-19
 2.320000e+05     1.007741e-18
 2.340000e+05     1.032096e-18
 2.360000e+05     1.056053e-18
 2.380000e+05     1.080819e-18
 2.400000e+05     1.106999e-18
 2.420000e+05     1.133729e-18
 2.440000e+05     1.160312e-18
 2.460000e+05     1.187638e-18
 2.480000e+05     1.216213e-18
 2.500000e+05     1.245714e-18
 2.520000e+05     1.275462e-18
 2.540000e+05     1.305709e-18
 2.560000e+05     1.336925e-18
 2.580000e+05     1.369884e-18
 2.600000e+05     1.404417e-18
 2.620000e+05     1.438527e-18
 2.640000e+05     1.472667e-18
 2.660000e+05     1.507880e-18
 2.680000e+05     1.544538e-18
 2.700000e+05     1.582216e-18
 2.720000e+05     1.620281e-18
 2.740000e+05     1.658757e-18
 2.760000e+05     1.698262e-18
 2.780000e+05     1.739595e-18
 2.800000e+05     1.782327e-18
 2.820000e+05     1.825505e-18
 2.840000e+05     1.868848e-18
 2.860000e+05     1.912371e-18
 2.880000e+05     1.957009e-18
 2.900000e+05     2.003031e-18
 2.920000e+05     2.049423e-18
 2.940000e+05     2.096521e-18
 2.960000e+05     2.144764e-18
 2.980000e+05     2.194137e-18
 3.000000e+05     2.244202e-18
 3.020000e+05     2.295525e-18
 3.040000e+05     2.346993e-18
 3.060000e+05     2.399401e-18
 3.080000e+05     2.452680e-18
 3.100000e+05     2.507146e-18
 3.120000e+05     2.561590e-18
 3.140000e+05     2.617048e-18
 3.160000e+05     2.674042e-18
 3.180000e+05     2.731230e-18
 3.200000e+05     2.790420e-18
 3.220000e+05     2.850862e-18
 3.240000e+05     2.911828e-18
 3.260000e+05     2.974423e-18
 3.280000e+05     3.038594e-18
 3.300000e+05     3.105193e-18
 3.320000e+05     3.171792e-18
 3.340000e+05     3.243590e-18
 3.360000e+05     3.319742e-18
 3.380000e+05     3.393475e-18
 3.400000e+05     3.461461e-18
 3.420000e+05     3.531192e-18
 3.440000e+05     3.603639e-18
 3.460000e+05     3.676214e-18
 3.480000e+05     3.757088e-18
 3.500000e+05     3.839665e-18
 3.520000e+05     3.912491e-18
 3.540000e+05     3.983323e-18
 3.560000e+05     4.053758e-18
 3.580000e+05     4.122051e-18
 3.600000e+05     4.192887e-18
 3.620000e+05     4.266330e-18
 3.640000e+05     4.336518e-18
 3.660000e+05     4.406937e-18
 3.680000e+05     4.478179e-18
 3.700000e+05     4.551057e-18
 3.720000e+05     4.624896e-18
 3.740000e+05     4.698796e-18
 3.760000e+05     4.773878e-18
 3.780000e+05     4.849609e-18
 3.800000e+05     4.924573e-18
 3.820000e+05     5.000437e-18
 3.840000e+05     5.078320e-18
 3.860000e+05     5.156583e-18
 3.880000e+05     5.235425e-18
 3.900000e+05     5.315192e-18
 3.920000e+05     5.395553e-18
 4.320000e+05     7.108652e-18
 4.760000e+05     9.224506e-18
 5.250000e+05     1.180867e-17
 5.790000e+05     1.481644e-17
 6.390000e+05     1.815045e-17
 7.040000e+05     2.153310e-17
 7.760000e+05     2.477157e-17
 8.560000e+05     2.754137e-17
 9.430000e+05     2.952817e-17
 1.040000e+06     3.060889e-17
 1.147000e+06     3.071470e-17
 1.264000e+06     2.991585e-17
 1.394000e+06     2.833322e-17
 1.537000e+06     2.617054e-17
 1.694000e+06     2.363655e-17
 1.868000e+06     2.090185e-17
 2.059000e+06     1.816115e-17
 2.270000e+06     1.552805e-17
 2.503000e+06     1.309678e-17
 2.760000e+06     1.092406e-17
 3.043000e+06     9.035195e-18
 3.354000e+06     7.428919e-18
 3.698000e+06     6.077054e-18
