## EBL from Khaire & Srianand 2018; Q20 Model with alpha=-2.0 
## Column1:wavelength (Angstrom);  Column2:EBL specific intensity J_nu (erg/s/cm^2/Hz/Sr)
## ===========================================================================================
 1.000000e-08     1.513612e-37
 1.122019e-08     2.200264e-37
 1.258925e-08     3.148205e-37
 1.412538e-08     4.416304e-37
 1.584893e-08     6.074756e-37
 1.778279e-08     8.205420e-37
 1.995263e-08     1.090255e-36
 2.238721e-08     1.427401e-36
 2.511887e-08     1.844317e-36
 2.818382e-08     2.355102e-36
 3.162278e-08     2.975913e-36
 3.548135e-08     3.725272e-36
 3.981071e-08     4.624469e-36
 4.466837e-08     5.698042e-36
 5.011870e-08     6.974256e-36
 5.623413e-08     8.485804e-36
 6.309576e-08     1.027044e-35
 7.079456e-08     1.237182e-35
 7.943284e-08     1.484059e-35
 8.912505e-08     1.773527e-35
 1.000000e-07     2.112378e-35
 1.122019e-07     2.508474e-35
 1.258925e-07     2.970923e-35
 1.412538e-07     3.510299e-35
 1.584892e-07     4.138830e-35
 1.778279e-07     4.870723e-35
 1.995263e-07     5.722418e-35
 2.238721e-07     6.712969e-35
 2.511887e-07     7.864486e-35
 2.818382e-07     9.202560e-35
 3.162278e-07     1.075689e-34
 3.548136e-07     1.256188e-34
 3.981071e-07     1.465735e-34
 4.466837e-07     1.708955e-34
 5.011870e-07     1.991198e-34
 5.623413e-07     2.318673e-34
 6.309576e-07     2.698570e-34
 7.079456e-07     3.139218e-34
 7.943284e-07     3.650280e-34
 8.912505e-07     4.242937e-34
 1.000000e-06     4.930172e-34
 1.122019e-06     5.727004e-34
 1.258925e-06     6.650839e-34
 1.412538e-06     7.721878e-34
 1.584893e-06     8.963482e-34
 1.778279e-06     1.040277e-33
 1.995263e-06     1.207113e-33
 2.238721e-06     1.400496e-33
 2.511887e-06     1.624642e-33
 2.818382e-06     1.884437e-33
 3.162278e-06     2.185545e-33
 3.548136e-06     2.534526e-33
 3.981071e-06     2.938980e-33
 4.466837e-06     3.407724e-33
 5.011870e-06     3.950959e-33
 5.623413e-06     4.580526e-33
 6.309576e-06     5.310128e-33
 7.079456e-06     6.155644e-33
 7.943284e-06     7.135496e-33
 8.912505e-06     8.270997e-33
 1.000000e-05     9.586887e-33
 1.122019e-05     1.111180e-32
 1.258925e-05     1.287891e-32
 1.412538e-05     1.492670e-32
 1.584893e-05     1.729971e-32
 1.778279e-05     2.004962e-32
 1.995263e-05     2.323626e-32
 2.238721e-05     2.692894e-32
 2.511887e-05     3.120807e-32
 2.818382e-05     3.616670e-32
 3.162278e-05     4.191282e-32
 3.548135e-05     4.857139e-32
 3.981071e-05     5.628726e-32
 4.466837e-05     6.522843e-32
 5.011870e-05     7.558928e-32
 5.623413e-05     8.759544e-32
 6.309577e-05     1.015081e-31
 7.079457e-05     1.176297e-31
 7.943284e-05     1.363113e-31
 8.912505e-05     1.579590e-31
 1.000000e-04     1.830444e-31
 1.122018e-04     2.121125e-31
 1.258926e-04     2.457546e-31
 1.412538e-04     2.839827e-31
 1.584893e-04     3.279795e-31
 1.778279e-04     3.789207e-31
 1.995262e-04     4.380773e-31
 2.238722e-04     5.068926e-31
 2.511887e-04     5.870422e-31
 2.818383e-04     6.804928e-31
 3.162278e-04     7.895606e-31
 3.548134e-04     9.169789e-31
 3.981073e-04     1.065979e-30
 4.466837e-04     1.240380e-30
 5.011873e-04     1.444707e-30
 5.623413e-04     1.684317e-30
 6.309572e-04     1.965562e-30
 7.079460e-04     2.295977e-30
 7.943284e-04     2.684504e-30
 8.912510e-04     3.141764e-30
 1.000000e-03     3.680380e-30
 1.122018e-03     4.315358e-30
 1.258926e-03     5.064568e-30
 1.412538e-03     5.949250e-30
 1.584893e-03     6.994722e-30
 1.778279e-03     8.231153e-30
 1.995262e-03     9.694499e-30
 2.238722e-03     1.142765e-29
 2.511887e-03     1.348174e-29
 2.818383e-03     1.591785e-29
 3.162278e-03     1.880889e-29
 3.548133e-03     2.224195e-29
 3.981073e-03     2.632111e-29
 4.466837e-03     3.117070e-29
 5.011873e-03     3.693956e-29
 5.623413e-03     4.380592e-29
 6.309573e-03     5.198383e-29
 7.079460e-03     6.173156e-29
 7.943284e-03     7.336265e-29
 8.912510e-03     8.726120e-29
 1.000000e-02     1.039014e-28
 1.122019e-02     1.238728e-28
 1.258925e-02     1.479088e-28
 1.412538e-02     1.769221e-28
 1.584894e-02     2.120379e-28
 1.778279e-02     2.546321e-28
 1.995263e-02     3.063698e-28
 2.238721e-02     3.692411e-28
 2.511887e-02     4.456075e-28
 2.818385e-02     5.382466e-28
 3.162277e-02     6.504109e-28
 3.548136e-02     7.859065e-28
 3.981071e-02     9.491740e-28
 4.466837e-02     1.145419e-27
 5.011876e-02     1.380743e-27
 5.623413e-02     1.662329e-27
 6.309576e-02     1.998662e-27
 7.079456e-02     2.399777e-27
 7.943284e-02     2.877601e-27
 8.912515e-02     3.446298e-27
 1.000000e-01     4.122736e-27
 1.122019e-01     4.927665e-27
 1.258925e-01     5.860549e-27
 1.412538e-01     6.893495e-27
 1.584894e-01     8.008127e-27
 1.778279e-01     9.190988e-27
 1.995263e-01     1.043126e-26
 2.238721e-01     1.171965e-26
 2.511887e-01     1.304809e-26
 2.818385e-01     1.440955e-26
 3.162278e-01     1.579801e-26
 3.548135e-01     1.720853e-26
 3.981071e-01     1.863706e-26
 4.466837e-01     2.008054e-26
 5.011876e-01     2.153671e-26
 5.623413e-01     2.300404e-26
 6.309576e-01     2.448150e-26
 7.079456e-01     2.596883e-26
 7.943284e-01     2.746609e-26
 8.912515e-01     2.897360e-26
 1.000000e+00     3.049183e-26
 1.122019e+00     3.202141e-26
 1.258925e+00     3.356290e-26
 1.412538e+00     3.511681e-26
 1.584894e+00     3.668337e-26
 1.778279e+00     3.826247e-26
 1.995263e+00     3.985362e-26
 2.238721e+00     4.145555e-26
 2.511887e+00     4.306614e-26
 2.818385e+00     4.468198e-26
 3.162278e+00     4.629786e-26
 3.548136e+00     4.790603e-26
 3.981071e+00     4.949505e-26
 4.466837e+00     5.104842e-26
 5.011876e+00     5.254234e-26
 5.623413e+00     5.394330e-26
 6.309576e+00     5.516462e-26
 7.079456e+00     5.572729e-26
 7.943284e+00     5.586116e-26
 8.912516e+00     5.566613e-26
 1.000000e+01     5.507108e-26
 1.122019e+01     5.392482e-26
 1.258925e+01     5.283825e-26
 1.412538e+01     5.174256e-26
 1.584894e+01     5.072194e-26
 1.778279e+01     4.949850e-26
 1.995263e+01     4.836997e-26
 2.238721e+01     4.695456e-26
 2.511887e+01     4.511157e-26
 2.818385e+01     4.296488e-26
 3.162278e+01     4.050438e-26
 3.548135e+01     3.776150e-26
 3.981071e+01     3.484372e-26
 4.466837e+01     3.186947e-26
 5.011876e+01     2.894314e-26
 5.623413e+01     2.618150e-26
 6.309576e+01     2.365911e-26
 7.079456e+01     2.142496e-26
 7.943284e+01     1.950617e-26
 8.912515e+01     1.787765e-26
 1.000000e+02     1.651647e-26
 1.120000e+02     1.540319e-26
 1.250000e+02     1.452865e-26
 1.400000e+02     1.381712e-26
 1.550000e+02     1.332112e-26
 1.650000e+02     1.308471e-26
 1.750000e+02     1.291263e-26
 1.850000e+02     1.280731e-26
 1.900000e+02     1.281882e-26
 1.950000e+02     1.294370e-26
 2.000000e+02     1.330093e-26
 2.050000e+02     1.417007e-26
 2.100000e+02     1.611677e-26
 2.150000e+02     2.022578e-26
 2.180000e+02     2.453551e-26
 2.210000e+02     3.107693e-26
 2.240000e+02     4.082153e-26
 2.260000e+02     4.979491e-26
 2.270000e+02     5.522142e-26
 2.275000e+02     5.820231e-26
 2.278400e+02     6.033999e-26
 2.380000e+02     1.222994e-23
 2.500000e+02     2.793600e-23
 2.700000e+02     4.320640e-23
 2.900000e+02     5.261488e-23
 3.035000e+02     5.743094e-23
 3.037800e+02     7.073234e-23
 3.045000e+02     7.019774e-23
 3.060000e+02     6.929409e-23
 3.080000e+02     6.835053e-23
 3.100000e+02     6.754714e-23
 3.120000e+02     6.695929e-23
 3.150000e+02     6.629143e-23
 3.200000e+02     6.582497e-23
 3.250000e+02     6.592995e-23
 3.300000e+02     6.642941e-23
 3.400000e+02     6.812213e-23
 3.600000e+02     7.275478e-23
 3.800000e+02     7.780282e-23
 4.050000e+02     8.421078e-23
 4.250000e+02     8.933889e-23
 4.500000e+02     9.572173e-23
 4.650000e+02     9.956153e-23
 4.750000e+02     1.021239e-22
 4.820000e+02     1.038934e-22
 4.870000e+02     1.051784e-22
 4.910000e+02     1.062204e-22
 4.950000e+02     1.072537e-22
 4.980000e+02     1.079933e-22
 5.000000e+02     1.085379e-22
 5.020000e+02     1.090310e-22
 5.039800e+02     1.095693e-22
 5.100000e+02     1.156692e-22
 5.250000e+02     1.276155e-22
 5.600000e+02     1.447682e-22
 6.000000e+02     1.592427e-22
 6.500000e+02     1.760977e-22
 7.000000e+02     1.947601e-22
 7.500000e+02     2.174423e-22
 8.000000e+02     2.465660e-22
 8.300000e+02     2.680608e-22
 8.600000e+02     2.938581e-22
 8.800000e+02     3.136071e-22
 8.900000e+02     3.244230e-22
 8.960000e+02     3.312077e-22
 9.000000e+02     3.358650e-22
 9.030000e+02     3.394580e-22
 9.060000e+02     3.429697e-22
 9.090000e+02     3.466789e-22
 9.117800e+02     3.501758e-22
 9.300000e+02     8.190264e-22
 9.500000e+02     1.600771e-21
 9.750000e+02     2.887431e-21
 9.900000e+02     3.509071e-21
 1.005000e+03     4.252942e-21
 1.025000e+03     5.517734e-21
 1.045000e+03     6.620035e-21
 1.065000e+03     8.128113e-21
 1.085000e+03     9.637732e-21
 1.105000e+03     1.110825e-20
 1.125000e+03     1.265664e-20
 1.145000e+03     1.402614e-20
 1.165000e+03     1.555400e-20
 1.185000e+03     1.686918e-20
 1.205000e+03     1.816840e-20
 1.215600e+03     1.877822e-20
 1.215670e+03     2.027492e-20
 1.216000e+03     2.028881e-20
 1.218000e+03     2.036642e-20
 1.221000e+03     2.047319e-20
 1.225000e+03     2.061497e-20
 1.230000e+03     2.081966e-20
 1.240000e+03     2.137391e-20
 1.250000e+03     2.200789e-20
 1.265000e+03     2.316260e-20
 1.285000e+03     2.445360e-20
 1.305000e+03     2.591891e-20
 1.325000e+03     2.730301e-20
 1.345000e+03     2.875318e-20
 1.365000e+03     3.005995e-20
 1.385000e+03     3.136283e-20
 1.405000e+03     3.261274e-20
 1.425000e+03     3.375754e-20
 1.442000e+03     3.461304e-20
 1.455000e+03     3.528108e-20
 1.475000e+03     3.645082e-20
 1.517000e+03     3.842294e-20
 1.595000e+03     4.150463e-20
 1.672000e+03     4.399240e-20
 1.745000e+03     4.609403e-20
 1.825000e+03     4.810667e-20
 1.905000e+03     4.944830e-20
 1.984000e+03     5.065631e-20
 2.065000e+03     5.142808e-20
 2.135000e+03     5.183246e-20
 2.215000e+03     5.216154e-20
 2.295000e+03     5.244396e-20
 2.375000e+03     5.268284e-20
 2.455000e+03     5.295352e-20
 2.525000e+03     5.317594e-20
 2.605000e+03     5.350993e-20
 2.685000e+03     5.406415e-20
 2.765000e+03     5.442107e-20
 2.845000e+03     5.457143e-20
 2.950000e+03     5.500612e-20
 3.110000e+03     5.560228e-20
 3.270000e+03     5.597350e-20
 3.430000e+03     5.622842e-20
 3.590000e+03     5.640757e-20
 3.730000e+03     5.703834e-20
 3.890000e+03     6.018711e-20
 4.050000e+03     6.404699e-20
 4.210000e+03     6.921910e-20
 4.370000e+03     7.347276e-20
 4.530000e+03     7.740225e-20
 4.690000e+03     8.098043e-20
 4.850000e+03     8.342661e-20
 5.010000e+03     8.573840e-20
 5.170000e+03     8.768864e-20
 5.330000e+03     8.952216e-20
 5.490000e+03     9.117313e-20
 5.650000e+03     9.275072e-20
 5.810000e+03     9.431937e-20
 5.970000e+03     9.550195e-20
 6.130000e+03     9.670402e-20
 6.290000e+03     9.774831e-20
 6.450000e+03     9.865467e-20
 6.610000e+03     9.945991e-20
 6.770000e+03     1.003085e-19
 6.930000e+03     1.010273e-19
 7.090000e+03     1.016279e-19
 7.250000e+03     1.021704e-19
 7.410000e+03     1.026947e-19
 7.570000e+03     1.032604e-19
 7.730000e+03     1.038851e-19
 7.890000e+03     1.044592e-19
 8.050000e+03     1.049572e-19
 8.210000e+03     1.054657e-19
 8.370000e+03     1.059540e-19
 8.530000e+03     1.064029e-19
 8.690000e+03     1.068806e-19
 8.850000e+03     1.075369e-19
 9.010000e+03     1.081411e-19
 9.170000e+03     1.087192e-19
 9.330000e+03     1.094552e-19
 9.490000e+03     1.102111e-19
 9.650000e+03     1.108151e-19
 9.810000e+03     1.114585e-19
 9.970000e+03     1.120875e-19
 1.050000e+04     1.135612e-19
 1.150000e+04     1.147537e-19
 1.250000e+04     1.152388e-19
 1.350000e+04     1.154121e-19
 1.450000e+04     1.157056e-19
 1.550000e+04     1.167847e-19
 1.650000e+04     1.174448e-19
 1.750000e+04     1.168615e-19
 1.850000e+04     1.149893e-19
 1.950000e+04     1.120734e-19
 2.050000e+04     1.089081e-19
 2.150000e+04     1.055334e-19
 2.250000e+04     1.018797e-19
 2.350000e+04     9.732290e-20
 2.450000e+04     9.231840e-20
 2.550000e+04     8.818017e-20
 2.650000e+04     8.439299e-20
 2.750000e+04     8.143119e-20
 2.850000e+04     7.893722e-20
 2.950000e+04     7.680913e-20
 3.050000e+04     7.496159e-20
 3.150000e+04     7.333184e-20
 3.250000e+04     7.185808e-20
 3.350000e+04     7.052006e-20
 3.450000e+04     6.933559e-20
 3.550000e+04     6.833781e-20
 3.650000e+04     6.752467e-20
 3.750000e+04     6.691315e-20
 3.850000e+04     6.654917e-20
 3.950000e+04     6.668364e-20
 4.050000e+04     6.711757e-20
 4.150000e+04     6.720303e-20
 4.250000e+04     6.706010e-20
 4.350000e+04     6.689909e-20
 4.450000e+04     6.689130e-20
 4.550000e+04     6.708880e-20
 4.650000e+04     6.750368e-20
 4.750000e+04     6.814776e-20
 4.850000e+04     6.902663e-20
 4.950000e+04     7.013514e-20
 5.050000e+04     7.145938e-20
 5.150000e+04     7.298437e-20
 5.250000e+04     7.470788e-20
 5.350000e+04     7.665387e-20
 5.450000e+04     7.884249e-20
 5.550000e+04     8.091093e-20
 5.650000e+04     8.327020e-20
 5.750000e+04     8.629930e-20
 5.850000e+04     8.932351e-20
 5.950000e+04     9.233275e-20
 6.050000e+04     9.651471e-20
 6.150000e+04     1.036653e-19
 6.250000e+04     1.186314e-19
 6.350000e+04     1.296469e-19
 6.450000e+04     1.354399e-19
 6.550000e+04     1.397306e-19
 6.650010e+04     1.434535e-19
 6.750010e+04     1.472664e-19
 6.850010e+04     1.509881e-19
 6.950010e+04     1.555372e-19
 7.020000e+04     1.601523e-19
 7.100000e+04     1.651379e-19
 7.180000e+04     1.702534e-19
 7.260000e+04     1.755722e-19
 7.340000e+04     1.821769e-19
 7.420000e+04     1.911074e-19
 7.500000e+04     2.026688e-19
 7.580000e+04     2.163342e-19
 7.660000e+04     2.312928e-19
 7.740000e+04     2.454956e-19
 7.820000e+04     2.590406e-19
 7.900000e+04     2.716323e-19
 7.980000e+04     2.822680e-19
 8.060000e+04     2.911161e-19
 8.140000e+04     2.981974e-19
 8.220000e+04     3.044166e-19
 8.300000e+04     3.098727e-19
 8.380000e+04     3.149187e-19
 8.460000e+04     3.198126e-19
 8.540000e+04     3.250794e-19
 8.620000e+04     3.305481e-19
 8.700000e+04     3.352917e-19
 8.780000e+04     3.382832e-19
 8.860000e+04     3.396501e-19
 8.940000e+04     3.402807e-19
 9.020000e+04     3.396742e-19
 9.100000e+04     3.383429e-19
 9.180000e+04     3.366015e-19
 9.260000e+04     3.341974e-19
 9.340000e+04     3.310720e-19
 9.420000e+04     3.275203e-19
 9.500000e+04     3.236196e-19
 9.580000e+04     3.196319e-19
 9.660000e+04     3.159047e-19
 9.740000e+04     3.123345e-19
 9.820000e+04     3.085304e-19
 9.900000e+04     3.046304e-19
 9.980000e+04     3.010100e-19
 1.006000e+05     2.976294e-19
 1.020000e+05     2.924899e-19
 1.040000e+05     2.850731e-19
 1.060000e+05     2.781557e-19
 1.080000e+05     2.709418e-19
 1.100000e+05     2.644990e-19
 1.120000e+05     2.671288e-19
 1.140000e+05     2.804311e-19
 1.160000e+05     2.836095e-19
 1.180000e+05     2.844548e-19
 1.200000e+05     2.881345e-19
 1.220000e+05     2.950878e-19
 1.240000e+05     3.057008e-19
 1.260000e+05     3.199053e-19
 1.280000e+05     3.426524e-19
 1.300000e+05     3.642532e-19
 1.320000e+05     3.711586e-19
 1.340000e+05     3.797610e-19
 1.360000e+05     3.866032e-19
 1.380000e+05     3.924466e-19
 1.400000e+05     3.976332e-19
 1.420000e+05     4.039532e-19
 1.440000e+05     4.108326e-19
 1.460000e+05     4.174731e-19
 1.480000e+05     4.234999e-19
 1.500000e+05     4.278855e-19
 1.520000e+05     4.304450e-19
 1.540000e+05     4.314939e-19
 1.560000e+05     4.334674e-19
 1.580000e+05     4.342965e-19
 1.600000e+05     4.336576e-19
 1.620000e+05     4.344383e-19
 1.640000e+05     4.373382e-19
 1.660000e+05     4.430009e-19
 1.680000e+05     4.472247e-19
 1.700000e+05     4.531530e-19
 1.720000e+05     4.608566e-19
 1.740000e+05     4.655993e-19
 1.760000e+05     4.704034e-19
 1.780000e+05     4.738045e-19
 1.800000e+05     4.783568e-19
 1.820000e+05     4.823174e-19
 1.840000e+05     4.871773e-19
 1.860000e+05     4.931843e-19
 1.880000e+05     5.042245e-19
 1.900000e+05     5.125825e-19
 1.920000e+05     5.205991e-19
 1.940000e+05     5.299256e-19
 1.960000e+05     5.398290e-19
 1.980000e+05     5.510504e-19
 2.000000e+05     5.625074e-19
 2.020000e+05     5.752049e-19
 2.040000e+05     5.885354e-19
 2.060000e+05     6.017212e-19
 2.080000e+05     6.148067e-19
 2.100000e+05     6.296374e-19
 2.120000e+05     6.439589e-19
 2.140000e+05     6.586843e-19
 2.160000e+05     6.753524e-19
 2.180000e+05     6.930537e-19
 2.200000e+05     7.096511e-19
 2.220000e+05     7.272701e-19
 2.240000e+05     7.467253e-19
 2.260000e+05     7.655257e-19
 2.280000e+05     7.833647e-19
 2.300000e+05     8.024773e-19
 2.320000e+05     8.229306e-19
 2.340000e+05     8.433604e-19
 2.360000e+05     8.633194e-19
 2.380000e+05     8.846133e-19
 2.400000e+05     9.078200e-19
 2.420000e+05     9.315180e-19
 2.440000e+05     9.548257e-19
 2.460000e+05     9.790160e-19
 2.480000e+05     1.004583e-18
 2.500000e+05     1.030244e-18
 2.520000e+05     1.055084e-18
 2.540000e+05     1.079920e-18
 2.560000e+05     1.106389e-18
 2.580000e+05     1.134903e-18
 2.600000e+05     1.164583e-18
 2.620000e+05     1.194000e-18
 2.640000e+05     1.223522e-18
 2.660000e+05     1.254596e-18
 2.680000e+05     1.287670e-18
 2.700000e+05     1.321329e-18
 2.720000e+05     1.355028e-18
 2.740000e+05     1.388766e-18
 2.760000e+05     1.423818e-18
 2.780000e+05     1.460977e-18
 2.800000e+05     1.499933e-18
 2.820000e+05     1.539886e-18
 2.840000e+05     1.579079e-18
 2.860000e+05     1.617488e-18
 2.880000e+05     1.656245e-18
 2.900000e+05     1.697074e-18
 2.920000e+05     1.738452e-18
 2.940000e+05     1.780397e-18
 2.960000e+05     1.823201e-18
 2.980000e+05     1.866174e-18
 3.000000e+05     1.908305e-18
 3.020000e+05     1.952098e-18
 3.040000e+05     1.997079e-18
 3.060000e+05     2.042038e-18
 3.080000e+05     2.087614e-18
 3.100000e+05     2.133624e-18
 3.120000e+05     2.178727e-18
 3.140000e+05     2.225019e-18
 3.160000e+05     2.273213e-18
 3.180000e+05     2.321543e-18
 3.200000e+05     2.371263e-18
 3.220000e+05     2.422433e-18
 3.240000e+05     2.473513e-18
 3.260000e+05     2.525951e-18
 3.280000e+05     2.577696e-18
 3.300000e+05     2.629946e-18
 3.320000e+05     2.682616e-18
 3.340000e+05     2.743654e-18
 3.360000e+05     2.809346e-18
 3.380000e+05     2.869327e-18
 3.400000e+05     2.922324e-18
 3.420000e+05     2.974712e-18
 3.440000e+05     3.028627e-18
 3.460000e+05     3.084460e-18
 3.480000e+05     3.149782e-18
 3.500000e+05     3.219833e-18
 3.520000e+05     3.281545e-18
 3.540000e+05     3.337336e-18
 3.560000e+05     3.389197e-18
 3.580000e+05     3.440683e-18
 3.600000e+05     3.496699e-18
 3.620000e+05     3.550931e-18
 3.640000e+05     3.604113e-18
 3.660000e+05     3.659254e-18
 3.680000e+05     3.713818e-18
 3.700000e+05     3.769171e-18
 3.720000e+05     3.826095e-18
 3.740000e+05     3.883165e-18
 3.760000e+05     3.940124e-18
 3.780000e+05     3.998101e-18
 3.800000e+05     4.056621e-18
 3.820000e+05     4.115182e-18
 3.840000e+05     4.174134e-18
 3.860000e+05     4.233668e-18
 3.880000e+05     4.293341e-18
 3.900000e+05     4.353170e-18
 3.920000e+05     4.413364e-18
 4.320000e+05     5.673014e-18
 4.760000e+05     7.125331e-18
 5.250000e+05     8.743237e-18
 5.790000e+05     1.043350e-17
 6.390000e+05     1.212929e-17
 7.040000e+05     1.360795e-17
 7.760000e+05     1.475946e-17
 8.560000e+05     1.552733e-17
 9.430000e+05     1.591502e-17
 1.040000e+06     1.599935e-17
 1.147000e+06     1.585573e-17
 1.264000e+06     1.556041e-17
 1.394000e+06     1.516742e-17
 1.537000e+06     1.470522e-17
 1.694000e+06     1.416966e-17
 1.868000e+06     1.353772e-17
 2.059000e+06     1.279063e-17
 2.270000e+06     1.191085e-17
 2.503000e+06     1.090315e-17
 2.760000e+06     9.792844e-18
 3.043000e+06     8.622112e-18
 3.354000e+06     7.440759e-18
 3.698000e+06     6.288593e-18
