## EBL from Khaire & Srianand 2018; Q20 Model with alpha=-2.0 
## Column1:wavelength (Angstrom);  Column2:EBL specific intensity J_nu (erg/s/cm^2/Hz/Sr)
## ===========================================================================================
 1.000000e-08     2.979007e-38
 1.122019e-08     4.349842e-38
 1.258925e-08     6.336910e-38
 1.412538e-08     9.189470e-38
 1.584893e-08     1.323624e-37
 1.778279e-08     1.889955e-37
 1.995263e-08     2.670700e-37
 2.238721e-08     3.730029e-37
 2.511887e-08     5.144241e-37
 2.818382e-08     7.002353e-37
 3.162278e-08     9.407066e-37
 3.548135e-08     1.247597e-36
 3.981071e-08     1.634345e-36
 4.466837e-08     2.116313e-36
 5.011870e-08     2.711061e-36
 5.623413e-08     3.438725e-36
 6.309576e-08     4.322384e-36
 7.079456e-08     5.388545e-36
 7.943284e-08     6.667731e-36
 8.912505e-08     8.195046e-36
 1.000000e-07     1.001103e-35
 1.122019e-07     1.216244e-35
 1.258925e-07     1.470330e-35
 1.412538e-07     1.769614e-35
 1.584892e-07     2.121324e-35
 1.778279e-07     2.533842e-35
 1.995263e-07     3.016863e-35
 2.238721e-07     3.581616e-35
 2.511887e-07     4.241127e-35
 2.818382e-07     5.010477e-35
 3.162278e-07     5.907160e-35
 3.548136e-07     6.951438e-35
 3.981071e-07     8.166784e-35
 4.466837e-07     9.580447e-35
 5.011870e-07     1.122395e-34
 5.623413e-07     1.313388e-34
 6.309576e-07     1.535262e-34
 7.079456e-07     1.792925e-34
 7.943284e-07     2.092076e-34
 8.912505e-07     2.439305e-34
 1.000000e-06     2.842264e-34
 1.122019e-06     3.309811e-34
 1.258925e-06     3.852207e-34
 1.412538e-06     4.481363e-34
 1.584893e-06     5.211058e-34
 1.778279e-06     6.057279e-34
 1.995263e-06     7.038546e-34
 2.238721e-06     8.176298e-34
 2.511887e-06     9.495425e-34
 2.818382e-06     1.102473e-33
 3.162278e-06     1.279762e-33
 3.548136e-06     1.485279e-33
 3.981071e-06     1.723503e-33
 4.466837e-06     1.999638e-33
 5.011870e-06     2.319698e-33
 5.623413e-06     2.690667e-33
 6.309576e-06     3.120627e-33
 7.079456e-06     3.618943e-33
 7.943284e-06     4.196482e-33
 8.912505e-06     4.865812e-33
 1.000000e-05     5.641526e-33
 1.122019e-05     6.540510e-33
 1.258925e-05     7.582326e-33
 1.412538e-05     8.789686e-33
 1.584893e-05     1.018885e-32
 1.778279e-05     1.181029e-32
 1.995263e-05     1.368931e-32
 2.238721e-05     1.586679e-32
 2.511887e-05     1.839014e-32
 2.818382e-05     2.131426e-32
 3.162278e-05     2.470282e-32
 3.548135e-05     2.862956e-32
 3.981071e-05     3.317989e-32
 4.466837e-05     3.845288e-32
 5.011870e-05     4.456320e-32
 5.623413e-05     5.164393e-32
 6.309577e-05     5.984911e-32
 7.079457e-05     6.935715e-32
 7.943284e-05     8.037515e-32
 8.912505e-05     9.314260e-32
 1.000000e-04     1.079375e-31
 1.122018e-04     1.250816e-31
 1.258926e-04     1.449479e-31
 1.412538e-04     1.679506e-31
 1.584893e-04     1.945667e-31
 1.778279e-04     2.253472e-31
 1.995262e-04     2.609242e-31
 2.238722e-04     3.020296e-31
 2.511887e-04     3.495201e-31
 2.818383e-04     4.044119e-31
 3.162278e-04     4.679185e-31
 3.548134e-04     5.414903e-31
 3.981073e-04     6.268569e-31
 4.466837e-04     7.260695e-31
 5.011873e-04     8.415531e-31
 5.623413e-04     9.761666e-31
 6.309572e-04     1.133280e-30
 7.079460e-04     1.316869e-30
 7.943284e-04     1.531620e-30
 8.912510e-04     1.783082e-30
 1.000000e-03     2.077814e-30
 1.122018e-03     2.423589e-30
 1.258926e-03     2.829625e-30
 1.412538e-03     3.306845e-30
 1.584893e-03     3.868227e-30
 1.778279e-03     4.529193e-30
 1.995262e-03     5.308069e-30
 2.238722e-03     6.226656e-30
 2.511887e-03     7.310881e-30
 2.818383e-03     8.591633e-30
 3.162278e-03     1.010570e-29
 3.548133e-03     1.189692e-29
 3.981073e-03     1.401757e-29
 4.466837e-03     1.652999e-29
 5.011873e-03     1.950858e-29
 5.623413e-03     2.304218e-29
 6.309573e-03     2.723691e-29
 7.079460e-03     3.221963e-29
 7.943284e-03     3.814215e-29
 8.912510e-03     4.518663e-29
 1.000000e-02     5.357208e-29
 1.122019e-02     6.356288e-29
 1.258925e-02     7.547919e-29
 1.412538e-02     8.971132e-29
 1.584894e-02     1.067360e-28
 1.778279e-02     1.271379e-28
 1.995263e-02     1.516362e-28
 2.238721e-02     1.811136e-28
 2.511887e-02     2.166529e-28
 2.818385e-02     2.595771e-28
 3.162277e-02     3.114933e-28
 3.548136e-02     3.743462e-28
 3.981071e-02     4.504687e-28
 4.466837e-02     5.426509e-28
 5.011876e-02     6.542051e-28
 5.623413e-02     7.890499e-28
 6.309576e-02     9.518123e-28
 7.079456e-02     1.147932e-27
 7.943284e-02     1.383817e-27
 8.912515e-02     1.667001e-27
 1.000000e-01     2.006359e-27
 1.122019e-01     2.412373e-27
 1.258925e-01     2.897075e-27
 1.412538e-01     3.472990e-27
 1.584894e-01     4.152848e-27
 1.778279e-01     4.948737e-27
 1.995263e-01     5.870833e-27
 2.238721e-01     6.925982e-27
 2.511887e-01     8.116643e-27
 2.818385e-01     9.440346e-27
 3.162278e-01     1.089000e-26
 3.548135e-01     1.245497e-26
 3.981071e-01     1.412236e-26
 4.466837e-01     1.587853e-26
 5.011876e-01     1.771011e-26
 5.623413e-01     1.960480e-26
 6.309576e-01     2.155185e-26
 7.079456e-01     2.354202e-26
 7.943284e-01     2.556778e-26
 8.912515e-01     2.762298e-26
 1.000000e+00     2.970288e-26
 1.122019e+00     3.180396e-26
 1.258925e+00     3.392369e-26
 1.412538e+00     3.606048e-26
 1.584894e+00     3.821342e-26
 1.778279e+00     4.038218e-26
 1.995263e+00     4.256699e-26
 2.238721e+00     4.476829e-26
 2.511887e+00     4.698684e-26
 2.818385e+00     4.922349e-26
 3.162278e+00     5.147915e-26
 3.548136e+00     5.375487e-26
 3.981071e+00     5.605159e-26
 4.466837e+00     5.837044e-26
 5.011876e+00     6.071262e-26
 5.623413e+00     6.307957e-26
 6.309576e+00     6.547301e-26
 7.079456e+00     6.788376e-26
 7.943284e+00     7.030258e-26
 8.912516e+00     7.271931e-26
 1.000000e+01     7.512142e-26
 1.122019e+01     7.749815e-26
 1.258925e+01     7.984730e-26
 1.412538e+01     8.220272e-26
 1.584894e+01     8.464058e-26
 1.778279e+01     8.728477e-26
 1.995263e+01     9.031698e-26
 2.238721e+01     9.397738e-26
 2.511887e+01     9.855942e-26
 2.818385e+01     1.043983e-25
 3.162278e+01     1.118571e-25
 3.548135e+01     1.213111e-25
 3.981071e+01     1.331292e-25
 4.466837e+01     1.476506e-25
 5.011876e+01     1.651510e-25
 5.623413e+01     1.858001e-25
 6.309576e+01     2.096079e-25
 7.079456e+01     2.363408e-25
 7.943284e+01     2.654590e-25
 8.912515e+01     2.969684e-25
 1.000000e+02     3.317178e-25
 1.120000e+02     3.698061e-25
 1.250000e+02     4.107072e-25
 1.400000e+02     4.575176e-25
 1.550000e+02     5.034771e-25
 1.650000e+02     5.334595e-25
 1.750000e+02     5.623815e-25
 1.850000e+02     5.907748e-25
 1.900000e+02     6.044884e-25
 1.950000e+02     6.182938e-25
 2.000000e+02     6.316991e-25
 2.050000e+02     6.456897e-25
 2.100000e+02     6.607362e-25
 2.150000e+02     6.786915e-25
 2.180000e+02     6.924918e-25
 2.210000e+02     7.100810e-25
 2.240000e+02     7.332604e-25
 2.260000e+02     7.533270e-25
 2.270000e+02     7.652910e-25
 2.275000e+02     7.717613e-25
 2.278400e+02     7.759524e-25
 2.380000e+02     8.642270e-25
 2.500000e+02     9.744773e-25
 2.700000e+02     1.191013e-24
 2.900000e+02     1.443559e-24
 3.035000e+02     1.634528e-24
 3.037800e+02     1.851071e-24
 3.045000e+02     1.863708e-24
 3.060000e+02     1.890233e-24
 3.080000e+02     1.925718e-24
 3.100000e+02     1.961479e-24
 3.120000e+02     1.997261e-24
 3.150000e+02     2.051379e-24
 3.200000e+02     2.141522e-24
 3.250000e+02     2.232467e-24
 3.300000e+02     2.324611e-24
 3.400000e+02     2.523536e-24
 3.600000e+02     2.944511e-24
 3.800000e+02     3.413428e-24
 4.050000e+02     4.011228e-24
 4.250000e+02     4.516079e-24
 4.500000e+02     5.179587e-24
 4.650000e+02     5.577905e-24
 4.750000e+02     5.848836e-24
 4.820000e+02     6.042460e-24
 4.870000e+02     6.181636e-24
 4.910000e+02     6.293616e-24
 4.950000e+02     6.407324e-24
 4.980000e+02     6.493114e-24
 5.000000e+02     6.552000e-24
 5.020000e+02     6.610394e-24
 5.039800e+02     6.668912e-24
 5.100000e+02     6.853554e-24
 5.250000e+02     7.287809e-24
 5.600000e+02     8.365624e-24
 6.000000e+02     9.581557e-24
 6.500000e+02     1.111728e-23
 7.000000e+02     1.269132e-23
 7.500000e+02     1.432984e-23
 8.000000e+02     1.604089e-23
 8.300000e+02     1.712232e-23
 8.600000e+02     1.825665e-23
 8.800000e+02     1.903485e-23
 8.900000e+02     1.943550e-23
 8.960000e+02     1.967896e-23
 9.000000e+02     1.984295e-23
 9.030000e+02     1.996625e-23
 9.060000e+02     2.011167e-23
 9.090000e+02     2.023727e-23
 9.117800e+02     2.035457e-23
 9.300000e+02     2.775959e-23
 9.500000e+02     3.577183e-23
 9.750000e+02     5.039445e-23
 9.900000e+02     6.210601e-23
 1.005000e+03     7.028128e-23
 1.025000e+03     9.118346e-23
 1.045000e+03     1.042676e-22
 1.065000e+03     1.219785e-22
 1.085000e+03     1.462401e-22
 1.105000e+03     1.735357e-22
 1.125000e+03     2.024226e-22
 1.145000e+03     2.301849e-22
 1.165000e+03     2.574254e-22
 1.185000e+03     2.886171e-22
 1.205000e+03     3.187554e-22
 1.215600e+03     3.336137e-22
 1.215670e+03     3.370885e-22
 1.216000e+03     3.375474e-22
 1.218000e+03     3.403020e-22
 1.221000e+03     3.443148e-22
 1.225000e+03     3.496243e-22
 1.230000e+03     3.558313e-22
 1.240000e+03     3.697354e-22
 1.250000e+03     3.846265e-22
 1.265000e+03     4.098733e-22
 1.285000e+03     4.461127e-22
 1.305000e+03     4.857274e-22
 1.325000e+03     5.246414e-22
 1.345000e+03     5.705447e-22
 1.365000e+03     6.163099e-22
 1.385000e+03     6.620311e-22
 1.405000e+03     7.048660e-22
 1.425000e+03     7.477710e-22
 1.442000e+03     7.877112e-22
 1.455000e+03     8.177570e-22
 1.475000e+03     8.644119e-22
 1.517000e+03     9.597339e-22
 1.595000e+03     1.140200e-21
 1.672000e+03     1.320480e-21
 1.745000e+03     1.497600e-21
 1.825000e+03     1.689937e-21
 1.905000e+03     1.878248e-21
 1.984000e+03     2.060541e-21
 2.065000e+03     2.239868e-21
 2.135000e+03     2.389088e-21
 2.215000e+03     2.554054e-21
 2.295000e+03     2.717850e-21
 2.375000e+03     2.881798e-21
 2.455000e+03     3.050102e-21
 2.525000e+03     3.198042e-21
 2.605000e+03     3.370943e-21
 2.685000e+03     3.560264e-21
 2.765000e+03     3.747593e-21
 2.845000e+03     3.925499e-21
 2.950000e+03     4.181497e-21
 3.110000e+03     4.606955e-21
 3.270000e+03     5.036411e-21
 3.430000e+03     5.490135e-21
 3.590000e+03     5.948997e-21
 3.730000e+03     6.369648e-21
 3.890000e+03     6.963814e-21
 4.050000e+03     7.581670e-21
 4.210000e+03     8.412529e-21
 4.370000e+03     9.299377e-21
 4.530000e+03     1.016419e-20
 4.690000e+03     1.115186e-20
 4.850000e+03     1.214145e-20
 5.010000e+03     1.309411e-20
 5.170000e+03     1.406120e-20
 5.330000e+03     1.506802e-20
 5.490000e+03     1.607213e-20
 5.650000e+03     1.710468e-20
 5.810000e+03     1.818162e-20
 5.970000e+03     1.920431e-20
 6.130000e+03     2.025667e-20
 6.290000e+03     2.129219e-20
 6.450000e+03     2.231428e-20
 6.610000e+03     2.332098e-20
 6.770000e+03     2.435160e-20
 6.930000e+03     2.534031e-20
 7.090000e+03     2.631676e-20
 7.250000e+03     2.727645e-20
 7.410000e+03     2.822575e-20
 7.570000e+03     2.915928e-20
 7.730000e+03     3.009775e-20
 7.890000e+03     3.101596e-20
 8.050000e+03     3.190663e-20
 8.210000e+03     3.279141e-20
 8.370000e+03     3.365977e-20
 8.530000e+03     3.450646e-20
 8.690000e+03     3.533514e-20
 8.850000e+03     3.616322e-20
 9.010000e+03     3.697735e-20
 9.170000e+03     3.776462e-20
 9.330000e+03     3.855159e-20
 9.490000e+03     3.933530e-20
 9.650000e+03     4.008958e-20
 9.810000e+03     4.082746e-20
 9.970000e+03     4.156735e-20
 1.050000e+04     4.386988e-20
 1.150000e+04     4.767624e-20
 1.250000e+04     5.094413e-20
 1.350000e+04     5.368412e-20
 1.450000e+04     5.606664e-20
 1.550000e+04     5.818958e-20
 1.650000e+04     6.007278e-20
 1.750000e+04     6.154164e-20
 1.850000e+04     6.256419e-20
 1.950000e+04     6.319940e-20
 2.050000e+04     6.351609e-20
 2.150000e+04     6.361287e-20
 2.250000e+04     6.344656e-20
 2.350000e+04     6.291876e-20
 2.450000e+04     6.210486e-20
 2.550000e+04     6.140173e-20
 2.650000e+04     6.075126e-20
 2.750000e+04     6.009097e-20
 2.850000e+04     5.941857e-20
 2.950000e+04     5.875374e-20
 3.050000e+04     5.811772e-20
 3.150000e+04     5.752598e-20
 3.250000e+04     5.698593e-20
 3.350000e+04     5.650307e-20
 3.450000e+04     5.609535e-20
 3.550000e+04     5.577903e-20
 3.650000e+04     5.555779e-20
 3.750000e+04     5.543256e-20
 3.850000e+04     5.538405e-20
 3.950000e+04     5.536809e-20
 4.050000e+04     5.535709e-20
 4.150000e+04     5.536189e-20
 4.250000e+04     5.535847e-20
 4.350000e+04     5.537829e-20
 4.450000e+04     5.545693e-20
 4.550000e+04     5.559799e-20
 4.650000e+04     5.578713e-20
 4.750000e+04     5.600329e-20
 4.850000e+04     5.625041e-20
 4.950000e+04     5.653020e-20
 5.050000e+04     5.683571e-20
 5.150000e+04     5.716185e-20
 5.250000e+04     5.750983e-20
 5.350000e+04     5.782447e-20
 5.450000e+04     5.809689e-20
 5.550000e+04     5.840908e-20
 5.650000e+04     5.873651e-20
 5.750000e+04     5.909462e-20
 5.850000e+04     5.946114e-20
 5.950000e+04     5.982826e-20
 6.050000e+04     6.034270e-20
 6.150000e+04     6.149511e-20
 6.250000e+04     6.348491e-20
 6.350000e+04     6.504658e-20
 6.450000e+04     6.601905e-20
 6.550000e+04     6.686010e-20
 6.650010e+04     6.779630e-20
 6.750010e+04     6.858727e-20
 6.850010e+04     6.929102e-20
 6.950010e+04     7.044893e-20
 7.020000e+04     7.133644e-20
 7.100000e+04     7.226693e-20
 7.180000e+04     7.327792e-20
 7.260000e+04     7.443343e-20
 7.340000e+04     7.569347e-20
 7.420000e+04     7.717884e-20
 7.500000e+04     7.909378e-20
 7.580000e+04     8.151151e-20
 7.660000e+04     8.420877e-20
 7.740000e+04     8.686689e-20
 7.820000e+04     8.933876e-20
 7.900000e+04     9.163509e-20
 7.980000e+04     9.375595e-20
 8.060000e+04     9.573108e-20
 8.140000e+04     9.752341e-20
 8.220000e+04     9.907415e-20
 8.300000e+04     1.004852e-19
 8.380000e+04     1.018857e-19
 8.460000e+04     1.032652e-19
 8.540000e+04     1.046144e-19
 8.620000e+04     1.061398e-19
 8.700000e+04     1.078155e-19
 8.780000e+04     1.093011e-19
 8.860000e+04     1.104728e-19
 8.940000e+04     1.114497e-19
 9.020000e+04     1.123275e-19
 9.100000e+04     1.130965e-19
 9.180000e+04     1.137975e-19
 9.260000e+04     1.145456e-19
 9.340000e+04     1.153300e-19
 9.420000e+04     1.160459e-19
 9.500000e+04     1.167280e-19
 9.580000e+04     1.173572e-19
 9.660000e+04     1.180564e-19
 9.740000e+04     1.187850e-19
 9.820000e+04     1.194464e-19
 9.900000e+04     1.200959e-19
 9.980000e+04     1.207401e-19
 1.006000e+05     1.213458e-19
 1.020000e+05     1.223806e-19
 1.040000e+05     1.239843e-19
 1.060000e+05     1.260235e-19
 1.080000e+05     1.281306e-19
 1.100000e+05     1.304608e-19
 1.120000e+05     1.342846e-19
 1.140000e+05     1.399742e-19
 1.160000e+05     1.437550e-19
 1.180000e+05     1.467644e-19
 1.200000e+05     1.496025e-19
 1.220000e+05     1.523830e-19
 1.240000e+05     1.544350e-19
 1.260000e+05     1.568131e-19
 1.280000e+05     1.598837e-19
 1.300000e+05     1.624813e-19
 1.320000e+05     1.631875e-19
 1.340000e+05     1.635754e-19
 1.360000e+05     1.641806e-19
 1.380000e+05     1.645531e-19
 1.400000e+05     1.643386e-19
 1.420000e+05     1.649185e-19
 1.440000e+05     1.641133e-19
 1.460000e+05     1.639714e-19
 1.480000e+05     1.641877e-19
 1.500000e+05     1.645171e-19
 1.520000e+05     1.642591e-19
 1.540000e+05     1.644122e-19
 1.560000e+05     1.652174e-19
 1.580000e+05     1.659994e-19
 1.600000e+05     1.667470e-19
 1.620000e+05     1.674409e-19
 1.640000e+05     1.682751e-19
 1.660000e+05     1.697540e-19
 1.680000e+05     1.714176e-19
 1.700000e+05     1.736606e-19
 1.720000e+05     1.756605e-19
 1.740000e+05     1.766866e-19
 1.760000e+05     1.778380e-19
 1.780000e+05     1.792988e-19
 1.800000e+05     1.806093e-19
 1.820000e+05     1.818547e-19
 1.840000e+05     1.828391e-19
 1.860000e+05     1.834608e-19
 1.880000e+05     1.849553e-19
 1.900000e+05     1.861395e-19
 1.920000e+05     1.875006e-19
 1.940000e+05     1.884157e-19
 1.960000e+05     1.892270e-19
 1.980000e+05     1.899101e-19
 2.000000e+05     1.906897e-19
 2.020000e+05     1.915530e-19
 2.040000e+05     1.925009e-19
 2.060000e+05     1.933202e-19
 2.080000e+05     1.942356e-19
 2.100000e+05     1.951437e-19
 2.120000e+05     1.960918e-19
 2.140000e+05     1.971897e-19
 2.160000e+05     1.983483e-19
 2.180000e+05     1.995457e-19
 2.200000e+05     2.007661e-19
 2.220000e+05     2.017795e-19
 2.240000e+05     2.030111e-19
 2.260000e+05     2.044872e-19
 2.280000e+05     2.060194e-19
 2.300000e+05     2.076039e-19
 2.320000e+05     2.092424e-19
 2.340000e+05     2.108712e-19
 2.360000e+05     2.126725e-19
 2.380000e+05     2.145023e-19
 2.400000e+05     2.163865e-19
 2.420000e+05     2.183948e-19
 2.440000e+05     2.204508e-19
 2.460000e+05     2.225191e-19
 2.480000e+05     2.246493e-19
 2.500000e+05     2.269059e-19
 2.520000e+05     2.292814e-19
 2.540000e+05     2.316854e-19
 2.560000e+05     2.340626e-19
 2.580000e+05     2.365621e-19
 2.600000e+05     2.393749e-19
 2.620000e+05     2.421453e-19
 2.640000e+05     2.447741e-19
 2.660000e+05     2.474942e-19
 2.680000e+05     2.502606e-19
 2.700000e+05     2.530366e-19
 2.720000e+05     2.558351e-19
 2.740000e+05     2.586864e-19
 2.760000e+05     2.616061e-19
 2.780000e+05     2.645825e-19
 2.800000e+05     2.676301e-19
 2.820000e+05     2.707644e-19
 2.840000e+05     2.739486e-19
 2.860000e+05     2.771430e-19
 2.880000e+05     2.803617e-19
 2.900000e+05     2.835968e-19
 2.920000e+05     2.869010e-19
 2.940000e+05     2.902922e-19
 2.960000e+05     2.937400e-19
 2.980000e+05     2.972389e-19
 3.000000e+05     3.007874e-19
 3.020000e+05     3.044112e-19
 3.040000e+05     3.081157e-19
 3.060000e+05     3.118619e-19
 3.080000e+05     3.156276e-19
 3.100000e+05     3.195130e-19
 3.120000e+05     3.234812e-19
 3.140000e+05     3.275151e-19
 3.160000e+05     3.316268e-19
 3.180000e+05     3.358234e-19
 3.200000e+05     3.401058e-19
 3.220000e+05     3.444808e-19
 3.240000e+05     3.489371e-19
 3.260000e+05     3.534779e-19
 3.280000e+05     3.581098e-19
 3.300000e+05     3.628423e-19
 3.320000e+05     3.677072e-19
 3.340000e+05     3.730189e-19
 3.360000e+05     3.790997e-19
 3.380000e+05     3.846376e-19
 3.400000e+05     3.897367e-19
 3.420000e+05     3.948498e-19
 3.440000e+05     3.999748e-19
 3.460000e+05     4.053282e-19
 3.480000e+05     4.117557e-19
 3.500000e+05     4.188138e-19
 3.520000e+05     4.247318e-19
 3.540000e+05     4.303251e-19
 3.560000e+05     4.359094e-19
 3.580000e+05     4.415486e-19
 3.600000e+05     4.473128e-19
 3.620000e+05     4.531144e-19
 3.640000e+05     4.590607e-19
 3.660000e+05     4.650204e-19
 3.680000e+05     4.709174e-19
 3.700000e+05     4.770734e-19
 3.720000e+05     4.832637e-19
 3.740000e+05     4.894884e-19
 3.760000e+05     4.958286e-19
 3.780000e+05     5.022821e-19
 3.800000e+05     5.085741e-19
 3.820000e+05     5.151457e-19
 3.840000e+05     5.217162e-19
 3.860000e+05     5.283272e-19
 3.880000e+05     5.350611e-19
 3.900000e+05     5.418769e-19
 3.920000e+05     5.487669e-19
 4.320000e+05     6.992656e-19
 4.760000e+05     8.926979e-19
 5.250000e+05     1.138891e-18
 5.790000e+05     1.440759e-18
 6.390000e+05     1.804927e-18
 7.040000e+05     2.226543e-18
 7.760000e+05     2.737109e-18
 8.560000e+05     3.372463e-18
 9.430000e+05     4.136436e-18
 1.040000e+06     5.045198e-18
 1.147000e+06     6.057389e-18
 1.264000e+06     7.096302e-18
 1.394000e+06     8.084064e-18
 1.537000e+06     8.911443e-18
 1.694000e+06     9.493457e-18
 1.868000e+06     9.776012e-18
 2.059000e+06     9.737422e-18
 2.270000e+06     9.395305e-18
 2.503000e+06     8.797281e-18
 2.760000e+06     8.011618e-18
 3.043000e+06     7.114613e-18
 3.354000e+06     6.178143e-18
 3.698000e+06     5.253798e-18
