## EBL from Khaire & Srianand 2018; Q20 Model with alpha=-2.0 
## Column1:wavelength (Angstrom);  Column2:EBL specific intensity J_nu (erg/s/cm^2/Hz/Sr)
## ===========================================================================================
 1.000000e-08     2.839301e-37
 1.122019e-08     4.128115e-37
 1.258925e-08     5.911119e-37
 1.412538e-08     8.301295e-37
 1.584893e-08     1.143265e-36
 1.778279e-08     1.546128e-36
 1.995263e-08     2.056695e-36
 2.238721e-08     2.695547e-36
 2.511887e-08     3.486233e-36
 2.818382e-08     4.455657e-36
 3.162278e-08     5.634656e-36
 3.548135e-08     7.058575e-36
 3.981071e-08     8.768037e-36
 4.466837e-08     1.080985e-35
 5.011870e-08     1.323794e-35
 5.623413e-08     1.611464e-35
 6.309576e-08     1.951197e-35
 7.079456e-08     2.351317e-35
 7.943284e-08     2.821480e-35
 8.912505e-08     3.372846e-35
 1.000000e-07     4.018366e-35
 1.122019e-07     4.773029e-35
 1.258925e-07     5.654202e-35
 1.412538e-07     6.682045e-35
 1.584892e-07     7.879872e-35
 1.778279e-07     9.274771e-35
 1.995263e-07     1.089809e-34
 2.238721e-07     1.278615e-34
 2.511887e-07     1.498111e-34
 2.818382e-07     1.753177e-34
 3.162278e-07     2.049476e-34
 3.548136e-07     2.393564e-34
 3.981071e-07     2.793037e-34
 4.466837e-07     3.256713e-34
 5.011870e-07     3.794790e-34
 5.623413e-07     4.419112e-34
 6.309576e-07     5.143381e-34
 7.079456e-07     5.983480e-34
 7.943284e-07     6.957835e-34
 8.912505e-07     8.087764e-34
 1.000000e-06     9.398017e-34
 1.122019e-06     1.091724e-33
 1.258925e-06     1.267860e-33
 1.412538e-06     1.472064e-33
 1.584893e-06     1.708789e-33
 1.778279e-06     1.983204e-33
 1.995263e-06     2.301299e-33
 2.238721e-06     2.670006e-33
 2.511887e-06     3.097370e-33
 2.818382e-06     3.592702e-33
 3.162278e-06     4.166806e-33
 3.548136e-06     4.832189e-33
 3.981071e-06     5.603339e-33
 4.466837e-06     6.497068e-33
 5.011870e-06     7.532827e-33
 5.623413e-06     8.733191e-33
 6.309576e-06     1.012429e-32
 7.079456e-06     1.173640e-32
 7.943284e-06     1.360464e-32
 8.912505e-06     1.576965e-32
 1.000000e-05     1.827861e-32
 1.122019e-05     2.118611e-32
 1.258925e-05     2.455538e-32
 1.412538e-05     2.845984e-32
 1.584893e-05     3.298437e-32
 1.778279e-05     3.822752e-32
 1.995263e-05     4.430338e-32
 2.238721e-05     5.134409e-32
 2.511887e-05     5.950296e-32
 2.818382e-05     6.895743e-32
 3.162278e-05     7.991336e-32
 3.548135e-05     9.260904e-32
 3.981071e-05     1.073207e-31
 4.466837e-05     1.243685e-31
 5.011870e-05     1.441232e-31
 5.623413e-05     1.670150e-31
 6.309577e-05     1.935418e-31
 7.079457e-05     2.242803e-31
 7.943284e-05     2.599000e-31
 8.912505e-05     3.011752e-31
 1.000000e-04     3.490046e-31
 1.122018e-04     4.044281e-31
 1.258926e-04     4.685830e-31
 1.412538e-04     5.415472e-31
 1.584893e-04     6.254931e-31
 1.778279e-04     7.226474e-31
 1.995262e-04     8.354359e-31
 2.238722e-04     9.666149e-31
 2.511887e-04     1.119380e-30
 2.818383e-04     1.297479e-30
 3.162278e-04     1.505324e-30
 3.548134e-04     1.748119e-30
 3.981073e-04     2.032016e-30
 4.466837e-04     2.364286e-30
 5.011873e-04     2.753540e-30
 5.623413e-04     3.209976e-30
 6.309572e-04     3.745685e-30
 7.079460e-04     4.375008e-30
 7.943284e-04     5.114956e-30
 8.912510e-04     5.985748e-30
 1.000000e-03     7.011401e-30
 1.122018e-03     8.220472e-30
 1.258926e-03     9.646956e-30
 1.412538e-03     1.133127e-29
 1.584893e-03     1.332158e-29
 1.778279e-03     1.567529e-29
 1.995262e-03     1.846079e-29
 2.238722e-03     2.175968e-29
 2.511887e-03     2.566925e-29
 2.818383e-03     3.030567e-29
 3.162278e-03     3.580763e-29
 3.548133e-03     4.234076e-29
 3.981073e-03     5.010307e-29
 4.466837e-03     5.933105e-29
 5.011873e-03     7.030773e-29
 5.623413e-03     8.337206e-29
 6.309573e-03     9.893110e-29
 7.079460e-03     1.174757e-28
 7.943284e-03     1.396017e-28
 8.912510e-03     1.660384e-28
 1.000000e-02     1.976857e-28
 1.122019e-02     2.356618e-28
 1.258925e-02     2.813579e-28
 1.412538e-02     3.365045e-28
 1.584894e-02     4.032364e-28
 1.778279e-02     4.841652e-28
 1.995263e-02     5.824543e-28
 2.238721e-02     7.018873e-28
 2.511887e-02     8.469570e-28
 2.818385e-02     1.022951e-27
 3.162277e-02     1.236065e-27
 3.548136e-02     1.493550e-27
 3.981071e-02     1.803867e-27
 4.466837e-02     2.176932e-27
 5.011876e-02     2.624373e-27
 5.623413e-02     3.159862e-27
 6.309576e-02     3.799561e-27
 7.079456e-02     4.562573e-27
 7.943284e-02     5.471592e-27
 8.912515e-02     6.553578e-27
 1.000000e-01     7.840618e-27
 1.122019e-01     9.372071e-27
 1.258925e-01     1.114996e-26
 1.412538e-01     1.312426e-26
 1.584894e-01     1.525992e-26
 1.778279e-01     1.753047e-26
 1.995263e-01     1.991445e-26
 2.238721e-01     2.239344e-26
 2.511887e-01     2.495152e-26
 2.818385e-01     2.757483e-26
 3.162278e-01     3.025154e-26
 3.548135e-01     3.297185e-26
 3.981071e-01     3.572778e-26
 4.466837e-01     3.851321e-26
 5.011876e-01     4.132363e-26
 5.623413e-01     4.415591e-26
 6.309576e-01     4.700821e-26
 7.079456e-01     4.987970e-26
 7.943284e-01     5.277047e-26
 8.912515e-01     5.568113e-26
 1.000000e+00     5.861270e-26
 1.122019e+00     6.156651e-26
 1.258925e+00     6.454385e-26
 1.412538e+00     6.754611e-26
 1.584894e+00     7.057430e-26
 1.778279e+00     7.362914e-26
 1.995263e+00     7.671100e-26
 2.238721e+00     7.981948e-26
 2.511887e+00     8.295355e-26
 2.818385e+00     8.611117e-26
 3.162278e+00     8.928908e-26
 3.548136e+00     9.248243e-26
 3.981071e+00     9.568388e-26
 4.466837e+00     9.888298e-26
 5.011876e+00     1.020644e-25
 5.623413e+00     1.052059e-25
 6.309576e+00     1.082120e-25
 7.079456e+00     1.102597e-25
 7.943284e+00     1.118364e-25
 8.912516e+00     1.131569e-25
 1.000000e+01     1.142653e-25
 1.122019e+01     1.150871e-25
 1.258925e+01     1.157305e-25
 1.412538e+01     1.176268e-25
 1.584894e+01     1.199996e-25
 1.778279e+01     1.230300e-25
 1.995263e+01     1.279981e-25
 2.238721e+01     1.331311e-25
 2.511887e+01     1.385158e-25
 2.818385e+01     1.429160e-25
 3.162278e+01     1.464465e-25
 3.548135e+01     1.488049e-25
 3.981071e+01     1.497897e-25
 4.466837e+01     1.488047e-25
 5.011876e+01     1.463176e-25
 5.623413e+01     1.425099e-25
 6.309576e+01     1.379506e-25
 7.079456e+01     1.330679e-25
 7.943284e+01     1.281690e-25
 8.912515e+01     1.235694e-25
 1.000000e+02     1.194426e-25
 1.120000e+02     1.159987e-25
 1.250000e+02     1.133688e-25
 1.400000e+02     1.114948e-25
 1.550000e+02     1.104877e-25
 1.650000e+02     1.102043e-25
 1.750000e+02     1.101817e-25
 1.850000e+02     1.105151e-25
 1.900000e+02     1.111092e-25
 1.950000e+02     1.124759e-25
 2.000000e+02     1.155651e-25
 2.050000e+02     1.224484e-25
 2.100000e+02     1.373601e-25
 2.150000e+02     1.686098e-25
 2.180000e+02     2.012795e-25
 2.210000e+02     2.507938e-25
 2.240000e+02     3.246772e-25
 2.260000e+02     3.928766e-25
 2.270000e+02     4.342512e-25
 2.275000e+02     4.568887e-25
 2.278400e+02     4.731282e-25
 2.380000e+02     1.019432e-23
 2.500000e+02     2.258693e-23
 2.700000e+02     3.701300e-23
 2.900000e+02     4.726035e-23
 3.035000e+02     5.271680e-23
 3.037800e+02     7.602803e-23
 3.045000e+02     7.523055e-23
 3.060000e+02     7.400303e-23
 3.080000e+02     7.249239e-23
 3.100000e+02     7.121678e-23
 3.120000e+02     7.001644e-23
 3.150000e+02     6.862728e-23
 3.200000e+02     6.694042e-23
 3.250000e+02     6.595867e-23
 3.300000e+02     6.555211e-23
 3.400000e+02     6.586812e-23
 3.600000e+02     6.919472e-23
 3.800000e+02     7.383495e-23
 4.050000e+02     8.005701e-23
 4.250000e+02     8.509273e-23
 4.500000e+02     9.141482e-23
 4.650000e+02     9.521846e-23
 4.750000e+02     9.775386e-23
 4.820000e+02     9.952272e-23
 4.870000e+02     1.008053e-22
 4.910000e+02     1.018456e-22
 4.950000e+02     1.028366e-22
 4.980000e+02     1.036347e-22
 5.000000e+02     1.041320e-22
 5.020000e+02     1.046305e-22
 5.039800e+02     1.051792e-22
 5.100000e+02     1.099481e-22
 5.250000e+02     1.196038e-22
 5.600000e+02     1.360755e-22
 6.000000e+02     1.511276e-22
 6.500000e+02     1.681757e-22
 7.000000e+02     1.864860e-22
 7.500000e+02     2.083445e-22
 8.000000e+02     2.359890e-22
 8.300000e+02     2.563025e-22
 8.600000e+02     2.804733e-22
 8.800000e+02     2.989429e-22
 8.900000e+02     3.091404e-22
 8.960000e+02     3.154161e-22
 9.000000e+02     3.197704e-22
 9.030000e+02     3.230555e-22
 9.060000e+02     3.265138e-22
 9.090000e+02     3.298734e-22
 9.117800e+02     3.331728e-22
 9.300000e+02     8.255646e-22
 9.500000e+02     1.444460e-21
 9.750000e+02     2.552397e-21
 9.900000e+02     3.065494e-21
 1.005000e+03     3.693192e-21
 1.025000e+03     4.798383e-21
 1.045000e+03     5.751769e-21
 1.065000e+03     7.086780e-21
 1.085000e+03     8.428923e-21
 1.105000e+03     9.740465e-21
 1.125000e+03     1.115950e-20
 1.145000e+03     1.242673e-20
 1.165000e+03     1.386845e-20
 1.185000e+03     1.510364e-20
 1.205000e+03     1.634619e-20
 1.215600e+03     1.694653e-20
 1.215670e+03     1.827253e-20
 1.216000e+03     1.828520e-20
 1.218000e+03     1.835436e-20
 1.221000e+03     1.843779e-20
 1.225000e+03     1.853758e-20
 1.230000e+03     1.870446e-20
 1.240000e+03     1.917623e-20
 1.250000e+03     1.972977e-20
 1.265000e+03     2.078334e-20
 1.285000e+03     2.213797e-20
 1.305000e+03     2.361814e-20
 1.325000e+03     2.492893e-20
 1.345000e+03     2.633756e-20
 1.365000e+03     2.766860e-20
 1.385000e+03     2.904169e-20
 1.405000e+03     3.022334e-20
 1.425000e+03     3.128786e-20
 1.442000e+03     3.227625e-20
 1.455000e+03     3.303448e-20
 1.475000e+03     3.426121e-20
 1.517000e+03     3.626741e-20
 1.595000e+03     3.939785e-20
 1.672000e+03     4.215764e-20
 1.745000e+03     4.449416e-20
 1.825000e+03     4.671745e-20
 1.905000e+03     4.831320e-20
 1.984000e+03     4.963543e-20
 2.065000e+03     5.063118e-20
 2.135000e+03     5.111397e-20
 2.215000e+03     5.164693e-20
 2.295000e+03     5.201491e-20
 2.375000e+03     5.238810e-20
 2.455000e+03     5.282130e-20
 2.525000e+03     5.315773e-20
 2.605000e+03     5.365908e-20
 2.685000e+03     5.443162e-20
 2.765000e+03     5.492043e-20
 2.845000e+03     5.528432e-20
 2.950000e+03     5.594719e-20
 3.110000e+03     5.689271e-20
 3.270000e+03     5.761698e-20
 3.430000e+03     5.821283e-20
 3.590000e+03     5.869373e-20
 3.730000e+03     5.954046e-20
 3.890000e+03     6.330078e-20
 4.050000e+03     6.735619e-20
 4.210000e+03     7.302742e-20
 4.370000e+03     7.785689e-20
 4.530000e+03     8.236816e-20
 4.690000e+03     8.653008e-20
 4.850000e+03     8.954295e-20
 5.010000e+03     9.233197e-20
 5.170000e+03     9.475726e-20
 5.330000e+03     9.703792e-20
 5.490000e+03     9.910461e-20
 5.650000e+03     1.010702e-19
 5.810000e+03     1.029952e-19
 5.970000e+03     1.044771e-19
 6.130000e+03     1.059665e-19
 6.290000e+03     1.072534e-19
 6.450000e+03     1.083972e-19
 6.610000e+03     1.094273e-19
 6.770000e+03     1.105086e-19
 6.930000e+03     1.114600e-19
 7.090000e+03     1.122866e-19
 7.250000e+03     1.130417e-19
 7.410000e+03     1.137670e-19
 7.570000e+03     1.145133e-19
 7.730000e+03     1.153271e-19
 7.890000e+03     1.160723e-19
 8.050000e+03     1.167241e-19
 8.210000e+03     1.173909e-19
 8.370000e+03     1.180214e-19
 8.530000e+03     1.186023e-19
 8.690000e+03     1.192172e-19
 8.850000e+03     1.200267e-19
 9.010000e+03     1.207601e-19
 9.170000e+03     1.214348e-19
 9.330000e+03     1.223488e-19
 9.490000e+03     1.232363e-19
 9.650000e+03     1.239651e-19
 9.810000e+03     1.247375e-19
 9.970000e+03     1.255002e-19
 1.050000e+04     1.273620e-19
 1.150000e+04     1.290488e-19
 1.250000e+04     1.299227e-19
 1.350000e+04     1.303630e-19
 1.450000e+04     1.308737e-19
 1.550000e+04     1.321815e-19
 1.650000e+04     1.330341e-19
 1.750000e+04     1.324760e-19
 1.850000e+04     1.304788e-19
 1.950000e+04     1.273216e-19
 2.050000e+04     1.238676e-19
 2.150000e+04     1.201698e-19
 2.250000e+04     1.161304e-19
 2.350000e+04     1.110737e-19
 2.450000e+04     1.053768e-19
 2.550000e+04     1.005751e-19
 2.650000e+04     9.602487e-20
 2.750000e+04     9.226605e-20
 2.850000e+04     8.890271e-20
 2.950000e+04     8.583679e-20
 3.050000e+04     8.301168e-20
 3.150000e+04     8.040345e-20
 3.250000e+04     7.797713e-20
 3.350000e+04     7.572025e-20
 3.450000e+04     7.363746e-20
 3.550000e+04     7.173832e-20
 3.650000e+04     6.999443e-20
 3.750000e+04     6.841494e-20
 3.850000e+04     6.701527e-20
 3.950000e+04     6.584251e-20
 4.050000e+04     6.490398e-20
 4.150000e+04     6.384243e-20
 4.250000e+04     6.270263e-20
 4.350000e+04     6.175339e-20
 4.450000e+04     6.097927e-20
 4.550000e+04     6.027809e-20
 4.650000e+04     5.964266e-20
 4.750000e+04     5.915814e-20
 4.850000e+04     5.893154e-20
 4.950000e+04     5.904035e-20
 5.050000e+04     5.950856e-20
 5.150000e+04     6.034317e-20
 5.250000e+04     6.155008e-20
 5.350000e+04     6.313836e-20
 5.450000e+04     6.531714e-20
 5.550000e+04     6.822589e-20
 5.650000e+04     7.104396e-20
 5.750000e+04     7.387826e-20
 5.850000e+04     7.603974e-20
 5.950000e+04     7.780875e-20
 6.050000e+04     8.064931e-20
 6.150000e+04     8.618808e-20
 6.250000e+04     9.962143e-20
 6.350000e+04     1.088844e-19
 6.450000e+04     1.131846e-19
 6.550000e+04     1.171221e-19
 6.650010e+04     1.212164e-19
 6.750010e+04     1.256491e-19
 6.850010e+04     1.297082e-19
 6.950010e+04     1.349389e-19
 7.020000e+04     1.397364e-19
 7.100000e+04     1.442848e-19
 7.180000e+04     1.485231e-19
 7.260000e+04     1.527930e-19
 7.340000e+04     1.580461e-19
 7.420000e+04     1.656601e-19
 7.500000e+04     1.762183e-19
 7.580000e+04     1.895275e-19
 7.660000e+04     2.044028e-19
 7.740000e+04     2.186823e-19
 7.820000e+04     2.323021e-19
 7.900000e+04     2.446193e-19
 7.980000e+04     2.545749e-19
 8.060000e+04     2.621325e-19
 8.140000e+04     2.676864e-19
 8.220000e+04     2.721950e-19
 8.300000e+04     2.759700e-19
 8.380000e+04     2.792314e-19
 8.460000e+04     2.823190e-19
 8.540000e+04     2.856581e-19
 8.620000e+04     2.893080e-19
 8.700000e+04     2.922024e-19
 8.780000e+04     2.934726e-19
 8.860000e+04     2.934928e-19
 8.940000e+04     2.930900e-19
 9.020000e+04     2.923565e-19
 9.100000e+04     2.912834e-19
 9.180000e+04     2.901421e-19
 9.260000e+04     2.888931e-19
 9.340000e+04     2.874591e-19
 9.420000e+04     2.860958e-19
 9.500000e+04     2.848495e-19
 9.580000e+04     2.836398e-19
 9.660000e+04     2.829060e-19
 9.740000e+04     2.822924e-19
 9.820000e+04     2.811501e-19
 9.900000e+04     2.796373e-19
 9.980000e+04     2.780642e-19
 1.006000e+05     2.764190e-19
 1.020000e+05     2.733229e-19
 1.040000e+05     2.679930e-19
 1.060000e+05     2.632430e-19
 1.080000e+05     2.591029e-19
 1.100000e+05     2.566040e-19
 1.120000e+05     2.626890e-19
 1.140000e+05     2.795902e-19
 1.160000e+05     2.831833e-19
 1.180000e+05     2.840250e-19
 1.200000e+05     2.862755e-19
 1.220000e+05     2.908113e-19
 1.240000e+05     2.983128e-19
 1.260000e+05     3.093265e-19
 1.280000e+05     3.297874e-19
 1.300000e+05     3.491697e-19
 1.320000e+05     3.508374e-19
 1.340000e+05     3.586635e-19
 1.360000e+05     3.652589e-19
 1.380000e+05     3.724982e-19
 1.400000e+05     3.793870e-19
 1.420000e+05     3.874154e-19
 1.440000e+05     3.954069e-19
 1.460000e+05     4.027522e-19
 1.480000e+05     4.097971e-19
 1.500000e+05     4.162285e-19
 1.520000e+05     4.218032e-19
 1.540000e+05     4.269754e-19
 1.560000e+05     4.346079e-19
 1.580000e+05     4.412266e-19
 1.600000e+05     4.456880e-19
 1.620000e+05     4.512013e-19
 1.640000e+05     4.577736e-19
 1.660000e+05     4.666383e-19
 1.680000e+05     4.730558e-19
 1.700000e+05     4.808348e-19
 1.720000e+05     4.899044e-19
 1.740000e+05     4.953310e-19
 1.760000e+05     5.003969e-19
 1.780000e+05     5.040407e-19
 1.800000e+05     5.087240e-19
 1.820000e+05     5.126109e-19
 1.840000e+05     5.172558e-19
 1.860000e+05     5.224083e-19
 1.880000e+05     5.326580e-19
 1.900000e+05     5.396112e-19
 1.920000e+05     5.471511e-19
 1.940000e+05     5.557570e-19
 1.960000e+05     5.661001e-19
 1.980000e+05     5.780244e-19
 2.000000e+05     5.907919e-19
 2.020000e+05     6.049590e-19
 2.040000e+05     6.205570e-19
 2.060000e+05     6.360044e-19
 2.080000e+05     6.516552e-19
 2.100000e+05     6.695064e-19
 2.120000e+05     6.871504e-19
 2.140000e+05     7.046223e-19
 2.160000e+05     7.243203e-19
 2.180000e+05     7.449947e-19
 2.200000e+05     7.643959e-19
 2.220000e+05     7.847442e-19
 2.240000e+05     8.071767e-19
 2.260000e+05     8.290785e-19
 2.280000e+05     8.503808e-19
 2.300000e+05     8.734788e-19
 2.320000e+05     8.984220e-19
 2.340000e+05     9.237701e-19
 2.360000e+05     9.491321e-19
 2.380000e+05     9.762012e-19
 2.400000e+05     1.005424e-18
 2.420000e+05     1.035540e-18
 2.440000e+05     1.065773e-18
 2.460000e+05     1.097495e-18
 2.480000e+05     1.131211e-18
 2.500000e+05     1.165557e-18
 2.520000e+05     1.199587e-18
 2.540000e+05     1.234333e-18
 2.560000e+05     1.270739e-18
 2.580000e+05     1.308766e-18
 2.600000e+05     1.347513e-18
 2.620000e+05     1.386091e-18
 2.640000e+05     1.424879e-18
 2.660000e+05     1.464868e-18
 2.680000e+05     1.506826e-18
 2.700000e+05     1.548722e-18
 2.720000e+05     1.590168e-18
 2.740000e+05     1.631722e-18
 2.760000e+05     1.674710e-18
 2.780000e+05     1.719613e-18
 2.800000e+05     1.766584e-18
 2.820000e+05     1.815395e-18
 2.840000e+05     1.863984e-18
 2.860000e+05     1.912029e-18
 2.880000e+05     1.960847e-18
 2.900000e+05     2.012023e-18
 2.920000e+05     2.064536e-18
 2.940000e+05     2.117768e-18
 2.960000e+05     2.172742e-18
 2.980000e+05     2.228209e-18
 3.000000e+05     2.282966e-18
 3.020000e+05     2.339638e-18
 3.040000e+05     2.398148e-18
 3.060000e+05     2.457032e-18
 3.080000e+05     2.516515e-18
 3.100000e+05     2.576191e-18
 3.120000e+05     2.635470e-18
 3.140000e+05     2.696780e-18
 3.160000e+05     2.759214e-18
 3.180000e+05     2.822787e-18
 3.200000e+05     2.888736e-18
 3.220000e+05     2.954271e-18
 3.240000e+05     3.020645e-18
 3.260000e+05     3.089470e-18
 3.280000e+05     3.156727e-18
 3.300000e+05     3.224821e-18
 3.320000e+05     3.292077e-18
 3.340000e+05     3.368310e-18
 3.360000e+05     3.451818e-18
 3.380000e+05     3.528384e-18
 3.400000e+05     3.592426e-18
 3.420000e+05     3.660012e-18
 3.440000e+05     3.728254e-18
 3.460000e+05     3.794276e-18
 3.480000e+05     3.876564e-18
 3.500000e+05     3.966999e-18
 3.520000e+05     4.050127e-18
 3.540000e+05     4.125037e-18
 3.560000e+05     4.191316e-18
 3.580000e+05     4.255754e-18
 3.600000e+05     4.327886e-18
 3.620000e+05     4.400423e-18
 3.640000e+05     4.467825e-18
 3.660000e+05     4.536188e-18
 3.680000e+05     4.609173e-18
 3.700000e+05     4.681871e-18
 3.720000e+05     4.753597e-18
 3.740000e+05     4.827647e-18
 3.760000e+05     4.903947e-18
 3.780000e+05     4.979606e-18
 3.800000e+05     5.055687e-18
 3.820000e+05     5.134070e-18
 3.840000e+05     5.213506e-18
 3.860000e+05     5.292759e-18
 3.880000e+05     5.373147e-18
 3.900000e+05     5.455109e-18
 3.920000e+05     5.537483e-18
 4.320000e+05     7.257516e-18
 4.760000e+05     9.219962e-18
 5.250000e+05     1.135864e-17
 5.790000e+05     1.354258e-17
 6.390000e+05     1.567163e-17
 7.040000e+05     1.748159e-17
 7.760000e+05     1.882428e-17
 8.560000e+05     1.960019e-17
 9.430000e+05     1.979578e-17
 1.040000e+06     1.949370e-17
 1.147000e+06     1.880882e-17
 1.264000e+06     1.787727e-17
 1.394000e+06     1.680538e-17
 1.537000e+06     1.569083e-17
 1.694000e+06     1.458356e-17
 1.868000e+06     1.349566e-17
 2.059000e+06     1.243215e-17
 2.270000e+06     1.137276e-17
 2.503000e+06     1.030458e-17
 2.760000e+06     9.223546e-18
 3.043000e+06     8.138617e-18
 3.354000e+06     7.069140e-18
 3.698000e+06     6.032525e-18
