## EBL from Khaire & Srianand 2018; Q20 Model with alpha=-2.0 
## Column1:wavelength (Angstrom);  Column2:EBL specific intensity J_nu (erg/s/cm^2/Hz/Sr)
## ===========================================================================================
 1.000000e-08     1.067809e-36
 1.122019e-08     1.554368e-36
 1.258925e-08     2.236448e-36
 1.412538e-08     3.164317e-36
 1.584893e-08     4.396117e-36
 1.778279e-08     5.998928e-36
 1.995263e-08     8.049847e-36
 2.238721e-08     1.063721e-35
 2.511887e-08     1.386219e-35
 2.818382e-08     1.784045e-35
 3.162278e-08     2.270450e-35
 3.548135e-08     2.860617e-35
 3.981071e-08     3.571972e-35
 4.466837e-08     4.424577e-35
 5.011870e-08     5.441513e-35
 5.623413e-08     6.649446e-35
 6.309576e-08     8.079148e-35
 7.079456e-08     9.766186e-35
 7.943284e-08     1.175177e-34
 8.912505e-08     1.408352e-34
 1.000000e-07     1.681670e-34
 1.122019e-07     2.001524e-34
 1.258925e-07     2.375323e-34
 1.412538e-07     2.811663e-34
 1.584892e-07     3.320486e-34
 1.778279e-07     3.913345e-34
 1.995263e-07     4.603607e-34
 2.238721e-07     5.406765e-34
 2.511887e-07     6.340793e-34
 2.818382e-07     7.426503e-34
 3.162278e-07     8.688043e-34
 3.548136e-07     1.015338e-33
 3.981071e-07     1.185490e-33
 4.466837e-07     1.383021e-33
 5.011870e-07     1.612281e-33
 5.623413e-07     1.878320e-33
 6.309576e-07     2.186983e-33
 7.079456e-07     2.545043e-33
 7.943284e-07     2.960360e-33
 8.912505e-07     3.442024e-33
 1.000000e-06     4.000593e-33
 1.122019e-06     4.648280e-33
 1.258925e-06     5.399240e-33
 1.412538e-06     6.269901e-33
 1.584893e-06     7.279260e-33
 1.778279e-06     8.449365e-33
 1.995263e-06     9.805760e-33
 2.238721e-06     1.137801e-32
 2.511887e-06     1.320043e-32
 2.818382e-06     1.531274e-32
 3.162278e-06     1.776102e-32
 3.548136e-06     2.059859e-32
 3.981071e-06     2.388725e-32
 4.466837e-06     2.769873e-32
 5.011870e-06     3.211597e-32
 5.623413e-06     3.723525e-32
 6.309576e-06     4.316803e-32
 7.079456e-06     5.004343e-32
 7.943284e-06     5.801126e-32
 8.912505e-06     6.724484e-32
 1.000000e-05     7.794537e-32
 1.122019e-05     9.034567e-32
 1.258925e-05     1.047155e-31
 1.412538e-05     1.213680e-31
 1.584893e-05     1.406651e-31
 1.778279e-05     1.630272e-31
 1.995263e-05     1.889409e-31
 2.238721e-05     2.189698e-31
 2.511887e-05     2.537678e-31
 2.818382e-05     2.940916e-31
 3.162278e-05     3.408193e-31
 3.548135e-05     3.949674e-31
 3.981071e-05     4.577136e-31
 4.466837e-05     5.304241e-31
 5.011870e-05     6.146796e-31
 5.623413e-05     7.123152e-31
 6.309577e-05     8.254544e-31
 7.079457e-05     9.565572e-31
 7.943284e-05     1.108479e-30
 8.912505e-05     1.284521e-30
 1.000000e-04     1.488519e-30
 1.122018e-04     1.724906e-30
 1.258926e-04     1.998702e-30
 1.412538e-04     2.311933e-30
 1.584893e-04     2.671934e-30
 1.778279e-04     3.087542e-30
 1.995262e-04     3.568941e-30
 2.238722e-04     4.127889e-30
 2.511887e-04     4.778022e-30
 2.818383e-04     5.535269e-30
 3.162278e-04     6.418320e-30
 3.548134e-04     7.449164e-30
 3.981073e-04     8.653753e-30
 4.466837e-04     1.006273e-29
 5.011873e-04     1.171237e-29
 5.623413e-04     1.364557e-29
 6.309572e-04     1.591321e-29
 7.079460e-04     1.857560e-29
 7.943284e-04     2.170422e-29
 8.912510e-04     2.538404e-29
 1.000000e-03     2.971593e-29
 1.122018e-03     3.481977e-29
 1.258926e-03     4.083825e-29
 1.412538e-03     4.794093e-29
 1.584893e-03     5.632985e-29
 1.778279e-03     6.624567e-29
 1.995262e-03     7.797512e-29
 2.238722e-03     9.186011e-29
 2.511887e-03     1.083082e-28
 2.818383e-03     1.278060e-28
 3.162278e-03     1.509343e-28
 3.548133e-03     1.783864e-28
 3.981073e-03     2.109912e-28
 4.466837e-03     2.497382e-28
 5.011873e-03     2.958113e-28
 5.623413e-03     3.506276e-28
 6.309573e-03     4.158867e-28
 7.079460e-03     4.936345e-28
 7.943284e-03     5.863461e-28
 8.912510e-03     6.970394e-28
 1.000000e-02     8.294221e-28
 1.122019e-02     9.880812e-28
 1.258925e-02     1.178710e-27
 1.412538e-02     1.408390e-27
 1.584894e-02     1.685868e-27
 1.778279e-02     2.021893e-27
 1.995263e-02     2.429546e-27
 2.238721e-02     2.924570e-27
 2.511887e-02     3.525759e-27
 2.818385e-02     4.255355e-27
 3.162277e-02     5.139512e-27
 3.548136e-02     6.208930e-27
 3.981071e-02     7.499472e-27
 4.466837e-02     9.053182e-27
 5.011876e-02     1.091930e-26
 5.623413e-02     1.315566e-26
 6.309576e-02     1.583049e-26
 7.079456e-02     1.902431e-26
 7.943284e-02     2.283263e-26
 8.912515e-02     2.736870e-26
 1.000000e-01     3.276723e-26
 1.122019e-01     3.919080e-26
 1.258925e-01     4.671858e-26
 1.412538e-01     5.523832e-26
 1.584894e-01     6.462665e-26
 1.778279e-01     7.476293e-26
 1.995263e-01     8.553575e-26
 2.238721e-01     9.684479e-26
 2.511887e-01     1.086019e-25
 2.818385e-01     1.207304e-25
 3.162278e-01     1.331643e-25
 3.548135e-01     1.458484e-25
 3.981071e-01     1.587367e-25
 4.466837e-01     1.717931e-25
 5.011876e-01     1.849893e-25
 5.623413e-01     1.983045e-25
 6.309576e-01     2.117253e-25
 7.079456e-01     2.252429e-25
 7.943284e-01     2.388543e-25
 8.912515e-01     2.525594e-25
 1.000000e+00     2.663613e-25
 1.122019e+00     2.802651e-25
 1.258925e+00     2.942769e-25
 1.412538e+00     3.084039e-25
 1.584894e+00     3.226529e-25
 1.778279e+00     3.370303e-25
 1.995263e+00     3.515425e-25
 2.238721e+00     3.661946e-25
 2.511887e+00     3.809921e-25
 2.818385e+00     3.959400e-25
 3.162278e+00     4.110442e-25
 3.548136e+00     4.263131e-25
 3.981071e+00     4.417587e-25
 4.466837e+00     4.573993e-25
 5.011876e+00     4.732616e-25
 5.623413e+00     4.893846e-25
 6.309576e+00     5.057047e-25
 7.079456e+00     5.198548e-25
 7.943284e+00     5.328469e-25
 8.912516e+00     5.457242e-25
 1.000000e+01     5.593474e-25
 1.122019e+01     5.743987e-25
 1.258925e+01     5.915353e-25
 1.412538e+01     6.160040e-25
 1.584894e+01     6.504534e-25
 1.778279e+01     6.972330e-25
 1.995263e+01     7.587787e-25
 2.238721e+01     8.376784e-25
 2.511887e+01     9.366160e-25
 2.818385e+01     1.058151e-24
 3.162278e+01     1.204326e-24
 3.548135e+01     1.377126e-24
 3.981071e+01     1.579187e-24
 4.466837e+01     1.786392e-24
 5.011876e+01     2.045741e-24
 5.623413e+01     2.320331e-24
 6.309576e+01     2.642304e-24
 7.079456e+01     2.978370e-24
 7.943284e+01     3.386868e-24
 8.912515e+01     3.855754e-24
 1.000000e+02     4.413454e-24
 1.120000e+02     5.056429e-24
 1.250000e+02     5.761193e-24
 1.400000e+02     6.562246e-24
 1.550000e+02     7.343938e-24
 1.650000e+02     7.849148e-24
 1.750000e+02     8.340717e-24
 1.850000e+02     8.813055e-24
 1.900000e+02     9.048412e-24
 1.950000e+02     9.295179e-24
 2.000000e+02     9.554428e-24
 2.050000e+02     9.876112e-24
 2.100000e+02     1.031915e-23
 2.150000e+02     1.105093e-23
 2.180000e+02     1.173060e-23
 2.210000e+02     1.274183e-23
 2.240000e+02     1.419515e-23
 2.260000e+02     1.554285e-23
 2.270000e+02     1.636695e-23
 2.275000e+02     1.680740e-23
 2.278400e+02     1.713426e-23
 2.380000e+02     2.273904e-23
 2.500000e+02     2.910500e-23
 2.700000e+02     3.840999e-23
 2.900000e+02     4.675972e-23
 3.035000e+02     5.265439e-23
 3.037800e+02     8.167675e-23
 3.045000e+02     8.174418e-23
 3.060000e+02     8.190549e-23
 3.080000e+02     8.220306e-23
 3.100000e+02     8.247530e-23
 3.120000e+02     8.280347e-23
 3.150000e+02     8.321050e-23
 3.200000e+02     8.420474e-23
 3.250000e+02     8.505288e-23
 3.300000e+02     8.562490e-23
 3.400000e+02     8.677728e-23
 3.600000e+02     9.009345e-23
 3.800000e+02     9.423421e-23
 4.050000e+02     1.010144e-22
 4.250000e+02     1.077378e-22
 4.500000e+02     1.172855e-22
 4.650000e+02     1.231611e-22
 4.750000e+02     1.280422e-22
 4.820000e+02     1.311170e-22
 4.870000e+02     1.331240e-22
 4.910000e+02     1.347478e-22
 4.950000e+02     1.364119e-22
 4.980000e+02     1.376720e-22
 5.000000e+02     1.386699e-22
 5.020000e+02     1.403436e-22
 5.039800e+02     1.413979e-22
 5.100000e+02     1.448792e-22
 5.250000e+02     1.524967e-22
 5.600000e+02     1.728031e-22
 6.000000e+02     1.953823e-22
 6.500000e+02     2.263467e-22
 7.000000e+02     2.581875e-22
 7.500000e+02     2.931676e-22
 8.000000e+02     3.336683e-22
 8.300000e+02     3.594114e-22
 8.600000e+02     3.896278e-22
 8.800000e+02     4.113776e-22
 8.900000e+02     4.219959e-22
 8.960000e+02     4.298919e-22
 9.000000e+02     4.343463e-22
 9.030000e+02     4.377135e-22
 9.060000e+02     4.411038e-22
 9.090000e+02     4.445172e-22
 9.117800e+02     4.476655e-22
 9.300000e+02     7.095375e-22
 9.500000e+02     7.882822e-22
 9.750000e+02     1.157352e-21
 9.900000e+02     1.307893e-21
 1.005000e+03     1.551228e-21
 1.025000e+03     1.898580e-21
 1.045000e+03     2.252940e-21
 1.065000e+03     2.697303e-21
 1.085000e+03     3.220240e-21
 1.105000e+03     3.711307e-21
 1.125000e+03     4.293288e-21
 1.145000e+03     4.826998e-21
 1.165000e+03     5.461870e-21
 1.185000e+03     6.039486e-21
 1.205000e+03     6.663608e-21
 1.215600e+03     6.936596e-21
 1.215670e+03     7.179423e-21
 1.216000e+03     7.187209e-21
 1.218000e+03     7.235649e-21
 1.221000e+03     7.307512e-21
 1.225000e+03     7.402711e-21
 1.230000e+03     7.527545e-21
 1.240000e+03     7.799902e-21
 1.250000e+03     8.123789e-21
 1.265000e+03     8.665724e-21
 1.285000e+03     9.404778e-21
 1.305000e+03     1.019063e-20
 1.325000e+03     1.097214e-20
 1.345000e+03     1.176843e-20
 1.365000e+03     1.261853e-20
 1.385000e+03     1.343805e-20
 1.405000e+03     1.423861e-20
 1.425000e+03     1.500319e-20
 1.442000e+03     1.567195e-20
 1.455000e+03     1.622836e-20
 1.475000e+03     1.703583e-20
 1.517000e+03     1.863375e-20
 1.595000e+03     2.130943e-20
 1.672000e+03     2.391804e-20
 1.745000e+03     2.619271e-20
 1.825000e+03     2.853471e-20
 1.905000e+03     3.054072e-20
 1.984000e+03     3.228706e-20
 2.065000e+03     3.375384e-20
 2.135000e+03     3.479004e-20
 2.215000e+03     3.577969e-20
 2.295000e+03     3.667982e-20
 2.375000e+03     3.758819e-20
 2.455000e+03     3.853205e-20
 2.525000e+03     3.937414e-20
 2.605000e+03     4.034667e-20
 2.685000e+03     4.152903e-20
 2.765000e+03     4.257698e-20
 2.845000e+03     4.348410e-20
 2.950000e+03     4.486036e-20
 3.110000e+03     4.697413e-20
 3.270000e+03     4.890027e-20
 3.430000e+03     5.074618e-20
 3.590000e+03     5.253258e-20
 3.730000e+03     5.424385e-20
 3.890000e+03     5.848703e-20
 4.050000e+03     6.259512e-20
 4.210000e+03     6.922134e-20
 4.370000e+03     7.531065e-20
 4.530000e+03     8.125781e-20
 4.690000e+03     8.715869e-20
 4.850000e+03     9.237345e-20
 5.010000e+03     9.689641e-20
 5.170000e+03     1.013948e-19
 5.330000e+03     1.056474e-19
 5.490000e+03     1.097487e-19
 5.650000e+03     1.137623e-19
 5.810000e+03     1.176709e-19
 5.970000e+03     1.211111e-19
 6.130000e+03     1.245138e-19
 6.290000e+03     1.274986e-19
 6.450000e+03     1.303842e-19
 6.610000e+03     1.329996e-19
 6.770000e+03     1.356124e-19
 6.930000e+03     1.380424e-19
 7.090000e+03     1.402774e-19
 7.250000e+03     1.423790e-19
 7.410000e+03     1.443928e-19
 7.570000e+03     1.463455e-19
 7.730000e+03     1.483796e-19
 7.890000e+03     1.502452e-19
 8.050000e+03     1.520204e-19
 8.210000e+03     1.537319e-19
 8.370000e+03     1.553828e-19
 8.530000e+03     1.569426e-19
 8.690000e+03     1.584476e-19
 8.850000e+03     1.601121e-19
 9.010000e+03     1.617043e-19
 9.170000e+03     1.632686e-19
 9.330000e+03     1.649592e-19
 9.490000e+03     1.666119e-19
 9.650000e+03     1.681942e-19
 9.810000e+03     1.696930e-19
 9.970000e+03     1.712804e-19
 1.050000e+04     1.756236e-19
 1.150000e+04     1.810293e-19
 1.250000e+04     1.851862e-19
 1.350000e+04     1.881826e-19
 1.450000e+04     1.908085e-19
 1.550000e+04     1.938580e-19
 1.650000e+04     1.963331e-19
 1.750000e+04     1.968657e-19
 1.850000e+04     1.953871e-19
 1.950000e+04     1.922428e-19
 2.050000e+04     1.882900e-19
 2.150000e+04     1.838607e-19
 2.250000e+04     1.788847e-19
 2.350000e+04     1.728221e-19
 2.450000e+04     1.656035e-19
 2.550000e+04     1.592084e-19
 2.650000e+04     1.529439e-19
 2.750000e+04     1.474290e-19
 2.850000e+04     1.423641e-19
 2.950000e+04     1.375747e-19
 3.050000e+04     1.329886e-19
 3.150000e+04     1.285672e-19
 3.250000e+04     1.242702e-19
 3.350000e+04     1.200865e-19
 3.450000e+04     1.160341e-19
 3.550000e+04     1.121505e-19
 3.650000e+04     1.084618e-19
 3.750000e+04     1.048903e-19
 3.850000e+04     1.014002e-19
 3.950000e+04     9.833927e-20
 4.050000e+04     9.541565e-20
 4.150000e+04     9.236881e-20
 4.250000e+04     8.927667e-20
 4.350000e+04     8.625868e-20
 4.450000e+04     8.334685e-20
 4.550000e+04     8.054880e-20
 4.650000e+04     7.793191e-20
 4.750000e+04     7.555962e-20
 4.850000e+04     7.347104e-20
 4.950000e+04     7.170229e-20
 5.050000e+04     7.029556e-20
 5.150000e+04     6.929181e-20
 5.250000e+04     6.959191e-20
 5.350000e+04     7.018930e-20
 5.450000e+04     7.011293e-20
 5.550000e+04     7.060340e-20
 5.650000e+04     7.222829e-20
 5.750000e+04     7.471049e-20
 5.850000e+04     7.659416e-20
 5.950000e+04     7.824430e-20
 6.050000e+04     8.156734e-20
 6.150000e+04     8.870889e-20
 6.250000e+04     1.070642e-19
 6.350000e+04     1.205193e-19
 6.450000e+04     1.257081e-19
 6.550000e+04     1.285793e-19
 6.650010e+04     1.320630e-19
 6.750010e+04     1.353662e-19
 6.850010e+04     1.387905e-19
 6.950010e+04     1.434204e-19
 7.020000e+04     1.485021e-19
 7.100000e+04     1.536782e-19
 7.180000e+04     1.588017e-19
 7.260000e+04     1.640401e-19
 7.340000e+04     1.710303e-19
 7.420000e+04     1.812438e-19
 7.500000e+04     1.955895e-19
 7.580000e+04     2.137539e-19
 7.660000e+04     2.340855e-19
 7.740000e+04     2.529827e-19
 7.820000e+04     2.707839e-19
 7.900000e+04     2.864380e-19
 7.980000e+04     2.981301e-19
 8.060000e+04     3.064559e-19
 8.140000e+04     3.115444e-19
 8.220000e+04     3.151308e-19
 8.300000e+04     3.182572e-19
 8.380000e+04     3.211014e-19
 8.460000e+04     3.238707e-19
 8.540000e+04     3.273485e-19
 8.620000e+04     3.313842e-19
 8.700000e+04     3.342606e-19
 8.780000e+04     3.343584e-19
 8.860000e+04     3.319216e-19
 8.940000e+04     3.283230e-19
 9.020000e+04     3.237710e-19
 9.100000e+04     3.189532e-19
 9.180000e+04     3.138543e-19
 9.260000e+04     3.085200e-19
 9.340000e+04     3.033296e-19
 9.420000e+04     2.982109e-19
 9.500000e+04     2.931126e-19
 9.580000e+04     2.881933e-19
 9.660000e+04     2.841531e-19
 9.740000e+04     2.803417e-19
 9.820000e+04     2.759334e-19
 9.900000e+04     2.714215e-19
 9.980000e+04     2.671829e-19
 1.006000e+05     2.629543e-19
 1.020000e+05     2.564006e-19
 1.040000e+05     2.483473e-19
 1.060000e+05     2.434467e-19
 1.080000e+05     2.408630e-19
 1.100000e+05     2.396217e-19
 1.120000e+05     2.514173e-19
 1.140000e+05     2.773575e-19
 1.160000e+05     2.864802e-19
 1.180000e+05     2.912031e-19
 1.200000e+05     2.969200e-19
 1.220000e+05     3.056962e-19
 1.240000e+05     3.172230e-19
 1.260000e+05     3.341954e-19
 1.280000e+05     3.624583e-19
 1.300000e+05     3.868868e-19
 1.320000e+05     3.965895e-19
 1.340000e+05     4.005267e-19
 1.360000e+05     4.126069e-19
 1.380000e+05     4.190812e-19
 1.400000e+05     4.277438e-19
 1.420000e+05     4.368530e-19
 1.440000e+05     4.458177e-19
 1.460000e+05     4.544083e-19
 1.480000e+05     4.626154e-19
 1.500000e+05     4.710435e-19
 1.520000e+05     4.795857e-19
 1.540000e+05     4.877352e-19
 1.560000e+05     4.989095e-19
 1.580000e+05     5.081049e-19
 1.600000e+05     5.169679e-19
 1.620000e+05     5.246869e-19
 1.640000e+05     5.365092e-19
 1.660000e+05     5.511541e-19
 1.680000e+05     5.641633e-19
 1.700000e+05     5.788706e-19
 1.720000e+05     5.963743e-19
 1.740000e+05     6.101645e-19
 1.760000e+05     6.214174e-19
 1.780000e+05     6.316017e-19
 1.800000e+05     6.416067e-19
 1.820000e+05     6.498206e-19
 1.840000e+05     6.592871e-19
 1.860000e+05     6.701629e-19
 1.880000e+05     6.870500e-19
 1.900000e+05     7.003276e-19
 1.920000e+05     7.136071e-19
 1.940000e+05     7.261657e-19
 1.960000e+05     7.416791e-19
 1.980000e+05     7.582366e-19
 2.000000e+05     7.753678e-19
 2.020000e+05     7.937592e-19
 2.040000e+05     8.136615e-19
 2.060000e+05     8.331005e-19
 2.080000e+05     8.527228e-19
 2.100000e+05     8.749663e-19
 2.120000e+05     8.972481e-19
 2.140000e+05     9.200630e-19
 2.160000e+05     9.462347e-19
 2.180000e+05     9.731269e-19
 2.200000e+05     9.994147e-19
 2.220000e+05     1.027475e-18
 2.240000e+05     1.057945e-18
 2.260000e+05     1.087933e-18
 2.280000e+05     1.118023e-18
 2.300000e+05     1.150172e-18
 2.320000e+05     1.184074e-18
 2.340000e+05     1.218984e-18
 2.360000e+05     1.254013e-18
 2.380000e+05     1.290087e-18
 2.400000e+05     1.328464e-18
 2.420000e+05     1.368109e-18
 2.440000e+05     1.407463e-18
 2.460000e+05     1.447876e-18
 2.480000e+05     1.490621e-18
 2.500000e+05     1.534915e-18
 2.520000e+05     1.578837e-18
 2.540000e+05     1.622518e-18
 2.560000e+05     1.668668e-18
 2.580000e+05     1.718256e-18
 2.600000e+05     1.769856e-18
 2.620000e+05     1.820246e-18
 2.640000e+05     1.870613e-18
 2.660000e+05     1.923531e-18
 2.680000e+05     1.979035e-18
 2.700000e+05     2.035989e-18
 2.720000e+05     2.093057e-18
 2.740000e+05     2.149943e-18
 2.760000e+05     2.209010e-18
 2.780000e+05     2.271415e-18
 2.800000e+05     2.336776e-18
 2.820000e+05     2.404030e-18
 2.840000e+05     2.470752e-18
 2.860000e+05     2.536672e-18
 2.880000e+05     2.603980e-18
 2.900000e+05     2.674945e-18
 2.920000e+05     2.747574e-18
 2.940000e+05     2.822515e-18
 2.960000e+05     2.898806e-18
 2.980000e+05     2.975046e-18
 3.000000e+05     3.051675e-18
 3.020000e+05     3.131325e-18
 3.040000e+05     3.213123e-18
 3.060000e+05     3.295791e-18
 3.080000e+05     3.380056e-18
 3.100000e+05     3.464659e-18
 3.120000e+05     3.548626e-18
 3.140000e+05     3.635653e-18
 3.160000e+05     3.725622e-18
 3.180000e+05     3.816506e-18
 3.200000e+05     3.909943e-18
 3.220000e+05     4.006338e-18
 3.240000e+05     4.103688e-18
 3.260000e+05     4.202392e-18
 3.280000e+05     4.301349e-18
 3.300000e+05     4.401568e-18
 3.320000e+05     4.503433e-18
 3.340000e+05     4.618568e-18
 3.360000e+05     4.739290e-18
 3.380000e+05     4.855026e-18
 3.400000e+05     4.960915e-18
 3.420000e+05     5.066091e-18
 3.440000e+05     5.176088e-18
 3.460000e+05     5.286562e-18
 3.480000e+05     5.408384e-18
 3.500000e+05     5.538041e-18
 3.520000e+05     5.655423e-18
 3.540000e+05     5.766384e-18
 3.560000e+05     5.877125e-18
 3.580000e+05     5.982075e-18
 3.600000e+05     6.090858e-18
 3.620000e+05     6.203675e-18
 3.640000e+05     6.313759e-18
 3.660000e+05     6.423189e-18
 3.680000e+05     6.534452e-18
 3.700000e+05     6.647940e-18
 3.720000e+05     6.761072e-18
 3.740000e+05     6.875617e-18
 3.760000e+05     6.993889e-18
 3.780000e+05     7.112241e-18
 3.800000e+05     7.231456e-18
 3.820000e+05     7.351455e-18
 3.840000e+05     7.471408e-18
 3.860000e+05     7.592892e-18
 3.880000e+05     7.717549e-18
 3.900000e+05     7.843347e-18
 3.920000e+05     7.969682e-18
 4.320000e+05     1.059219e-17
 4.760000e+05     1.368552e-17
 5.250000e+05     1.723370e-17
 5.790000e+05     2.105781e-17
 6.390000e+05     2.496392e-17
 7.040000e+05     2.847519e-17
 7.760000e+05     3.128938e-17
 8.560000e+05     3.315204e-17
 9.430000e+05     3.392274e-17
 1.040000e+06     3.363223e-17
 1.147000e+06     3.238628e-17
 1.264000e+06     3.039294e-17
 1.394000e+06     2.784404e-17
 1.537000e+06     2.499279e-17
 1.694000e+06     2.204343e-17
 1.868000e+06     1.913547e-17
 2.059000e+06     1.641601e-17
 2.270000e+06     1.394336e-17
 2.503000e+06     1.175742e-17
 2.760000e+06     9.866460e-18
 3.043000e+06     8.257116e-18
 3.354000e+06     6.901192e-18
 3.698000e+06     5.756764e-18
