## EBL from Khaire & Srianand 2018; Q18 Model with alpha=-1.8 
## Column1:wavelength (Angstrom);  Column2:EBL specific intensity J_nu (erg/s/cm^2/Hz/Sr)
## ===========================================================================================
 1.000000e-08     2.012008e-41
 1.122019e-08     2.926019e-41
 1.258925e-08     4.170970e-41
 1.412538e-08     5.817905e-41
 1.584893e-08     7.954283e-41
 1.778279e-08     1.068179e-40
 1.995263e-08     1.411679e-40
 2.238721e-08     1.839195e-40
 2.511887e-08     2.365884e-40
 2.818382e-08     3.009061e-40
 3.162278e-08     3.788583e-40
 3.548135e-08     4.727226e-40
 3.981071e-08     5.851194e-40
 4.466837e-08     7.190703e-40
 5.011870e-08     8.780585e-40
 5.623413e-08     1.066114e-39
 6.309576e-08     1.287893e-39
 7.079456e-08     1.548782e-39
 7.943284e-08     1.855027e-39
 8.912505e-08     2.213852e-39
 1.000000e-07     2.633640e-39
 1.122019e-07     3.124093e-39
 1.258925e-07     3.696455e-39
 1.412538e-07     4.363776e-39
 1.584892e-07     5.141151e-39
 1.778279e-07     6.046118e-39
 1.995263e-07     7.098969e-39
 2.238721e-07     8.323224e-39
 2.511887e-07     9.746174e-39
 2.818382e-07     1.139941e-38
 3.162278e-07     1.331959e-38
 3.548136e-07     1.554916e-38
 3.981071e-07     1.813731e-38
 4.466837e-07     2.114110e-38
 5.011870e-07     2.462657e-38
 5.623413e-07     2.867037e-38
 6.309576e-07     3.336124e-38
 7.079456e-07     3.880196e-38
 7.943284e-07     4.511183e-38
 8.912505e-07     5.242886e-38
 1.000000e-06     6.091325e-38
 1.122019e-06     7.075043e-38
 1.258925e-06     8.215520e-38
 1.412538e-06     9.537692e-38
 1.584893e-06     1.107039e-37
 1.778279e-06     1.284709e-37
 1.995263e-06     1.490654e-37
 2.238721e-06     1.729364e-37
 2.511887e-06     2.006046e-37
 2.818382e-06     2.326727e-37
 3.162278e-06     2.698401e-37
 3.548136e-06     3.129165e-37
 3.981071e-06     3.628396e-37
 4.466837e-06     4.206978e-37
 5.011870e-06     4.877503e-37
 5.623413e-06     5.654584e-37
 6.309576e-06     6.555137e-37
 7.079456e-06     7.598757e-37
 7.943284e-06     8.808186e-37
 8.912505e-06     1.020973e-36
 1.000000e-05     1.183392e-36
 1.122019e-05     1.371609e-36
 1.258925e-05     1.589720e-36
 1.412538e-05     1.842475e-36
 1.584893e-05     2.135371e-36
 1.778279e-05     2.474785e-36
 1.995263e-05     2.868103e-36
 2.238721e-05     3.323881e-36
 2.511887e-05     3.852041e-36
 2.818382e-05     4.464070e-36
 3.162278e-05     5.173295e-36
 3.548135e-05     5.995142e-36
 3.981071e-05     6.947486e-36
 4.466837e-05     8.051063e-36
 5.011870e-05     9.329867e-36
 5.623413e-05     1.081174e-35
 6.309577e-05     1.252893e-35
 7.079457e-05     1.451876e-35
 7.943284e-05     1.682456e-35
 8.912505e-05     1.949646e-35
 1.000000e-04     2.259264e-35
 1.122018e-04     2.618042e-35
 1.258926e-04     3.033136e-35
 1.412538e-04     3.502146e-35
 1.584893e-04     4.043452e-35
 1.778279e-04     4.671689e-35
 1.995262e-04     5.402215e-35
 2.238722e-04     6.252647e-35
 2.511887e-04     7.243636e-35
 2.818383e-04     8.399536e-35
 3.162278e-04     9.749097e-35
 3.548134e-04     1.132627e-34
 3.981073e-04     1.317122e-34
 4.466837e-04     1.533144e-34
 5.011873e-04     1.786318e-34
 5.623413e-04     2.083309e-34
 6.309572e-04     2.432022e-34
 7.079460e-04     2.841835e-34
 7.943284e-04     3.323876e-34
 8.912510e-04     3.891374e-34
 1.000000e-03     4.560047e-34
 1.122018e-03     5.348590e-34
 1.258926e-03     6.279266e-34
 1.412538e-03     7.378540e-34
 1.584893e-03     8.677971e-34
 1.778279e-03     1.021517e-33
 1.995262e-03     1.203495e-33
 2.238722e-03     1.419082e-33
 2.511887e-03     1.674653e-33
 2.818383e-03     1.977829e-33
 3.162278e-03     2.337704e-33
 3.548133e-03     2.765141e-33
 3.981073e-03     3.273134e-33
 4.466837e-03     3.877197e-33
 5.011873e-03     4.595913e-33
 5.623413e-03     5.451561e-33
 6.309573e-03     6.470949e-33
 7.079460e-03     7.686557e-33
 7.943284e-03     9.138079e-33
 8.912510e-03     1.087460e-32
 1.000000e-02     1.295743e-32
 1.122019e-02     1.546366e-32
 1.258925e-02     1.849023e-32
 1.412538e-02     2.215866e-32
 1.584894e-02     2.661939e-32
 1.778279e-02     3.205650e-32
 1.995263e-02     3.869217e-32
 2.238721e-02     4.679073e-32
 2.511887e-02     5.666371e-32
 2.818385e-02     6.867499e-32
 3.162277e-02     8.324750e-32
 3.548136e-02     1.008728e-31
 3.981071e-02     1.221208e-31
 4.466837e-02     1.476563e-31
 5.011876e-02     1.782555e-31
 5.623413e-02     2.148288e-31
 6.309576e-02     2.584497e-31
 7.079456e-02     3.103855e-31
 7.943284e-02     3.721399e-31
 8.912515e-02     4.454979e-31
 1.000000e-01     5.325824e-31
 1.122019e-01     6.360218e-31
 1.258925e-01     7.548983e-31
 1.412538e-01     8.845521e-31
 1.584894e-01     1.023018e-30
 1.778279e-01     1.169072e-30
 1.995263e-01     1.321700e-30
 2.238721e-01     1.479981e-30
 2.511887e-01     1.643100e-30
 2.818385e-01     1.810345e-30
 3.162278e-01     1.981127e-30
 3.548135e-01     2.154981e-30
 3.981071e-01     2.331555e-30
 4.466837e-01     2.510611e-30
 5.011876e-01     2.692011e-30
 5.623413e-01     2.875704e-30
 6.309576e-01     3.060987e-30
 7.079456e-01     3.248815e-30
 7.943284e-01     3.439013e-30
 8.912515e-01     3.631553e-30
 1.000000e+00     3.826409e-30
 1.122019e+00     4.023467e-30
 1.258925e+00     4.222439e-30
 1.412538e+00     4.422764e-30
 1.584894e+00     4.623444e-30
 1.778279e+00     4.822835e-30
 1.995263e+00     5.018342e-30
 2.238721e+00     5.205963e-30
 2.511887e+00     5.379739e-30
 2.818385e+00     5.531025e-30
 3.162278e+00     5.647739e-30
 3.548136e+00     5.713805e-30
 3.981071e+00     5.709300e-30
 4.466837e+00     5.612104e-30
 5.011876e+00     5.401931e-30
 5.623413e+00     5.066911e-30
 6.309576e+00     4.600870e-30
 7.079456e+00     4.018866e-30
 7.943284e+00     3.421381e-30
 8.912516e+00     2.859216e-30
 1.000000e+01     2.345895e-30
 1.122019e+01     1.904002e-30
 1.258925e+01     1.537323e-30
 1.412538e+01     1.240028e-30
 1.584894e+01     1.002751e-30
 1.778279e+01     8.146336e-31
 1.995263e+01     6.656698e-31
 2.238721e+01     5.476063e-31
 2.511887e+01     4.535361e-31
 2.818385e+01     3.781381e-31
 3.162278e+01     3.172104e-31
 3.548135e+01     2.676348e-31
 3.981071e+01     2.270329e-31
 4.466837e+01     1.935448e-31
 5.011876e+01     1.657626e-31
 5.623413e+01     1.426043e-31
 6.309576e+01     1.232268e-31
 7.079456e+01     1.069660e-31
 7.943284e+01     9.324943e-32
 8.912515e+01     8.167850e-32
 1.000000e+02     7.190257e-32
 1.120000e+02     6.375653e-32
 1.250000e+02     5.704285e-32
 1.400000e+02     5.116673e-32
 1.550000e+02     4.668025e-32
 1.650000e+02     4.425827e-32
 1.750000e+02     4.222896e-32
 1.850000e+02     4.060382e-32
 1.900000e+02     4.013778e-32
 1.950000e+02     4.021158e-32
 2.000000e+02     4.143576e-32
 2.050000e+02     4.509534e-32
 2.100000e+02     5.378122e-32
 2.150000e+02     7.252043e-32
 2.180000e+02     9.223832e-32
 2.210000e+02     1.220245e-31
 2.240000e+02     1.664108e-31
 2.260000e+02     2.071547e-31
 2.270000e+02     2.317453e-31
 2.275000e+02     2.452462e-31
 2.278400e+02     2.549190e-31
 2.380000e+02     3.549820e-24
 2.500000e+02     3.792039e-24
 2.700000e+02     3.986713e-24
 2.900000e+02     4.171998e-24
 3.035000e+02     4.292313e-24
 3.037800e+02     4.297547e-24
 3.045000e+02     4.302606e-24
 3.060000e+02     4.314786e-24
 3.080000e+02     4.331877e-24
 3.100000e+02     4.348990e-24
 3.120000e+02     4.366273e-24
 3.150000e+02     4.391934e-24
 3.200000e+02     4.434520e-24
 3.250000e+02     4.476454e-24
 3.300000e+02     4.518027e-24
 3.400000e+02     4.599542e-24
 3.600000e+02     4.757415e-24
 3.800000e+02     4.908271e-24
 4.050000e+02     5.088511e-24
 4.250000e+02     5.227182e-24
 4.500000e+02     5.393215e-24
 4.650000e+02     5.492507e-24
 4.750000e+02     5.557421e-24
 4.820000e+02     5.602212e-24
 4.870000e+02     5.633706e-24
 4.910000e+02     5.658713e-24
 4.950000e+02     5.683939e-24
 4.980000e+02     5.702508e-24
 5.000000e+02     5.714864e-24
 5.020000e+02     5.727853e-24
 5.039800e+02     5.741195e-24
 5.100000e+02     7.925947e-24
 5.250000e+02     8.069103e-24
 5.600000e+02     8.270382e-24
 6.000000e+02     8.523624e-24
 6.500000e+02     8.969849e-24
 7.000000e+02     9.639088e-24
 7.500000e+02     1.069523e-23
 8.000000e+02     1.224958e-23
 8.300000e+02     1.351053e-23
 8.600000e+02     1.505914e-23
 8.800000e+02     1.626793e-23
 8.900000e+02     1.692939e-23
 8.960000e+02     1.734476e-23
 9.000000e+02     1.763053e-23
 9.030000e+02     1.784856e-23
 9.060000e+02     1.807033e-23
 9.090000e+02     1.829591e-23
 9.117800e+02     1.850834e-23
 9.300000e+02     7.396367e-22
 9.500000e+02     2.035185e-21
 9.750000e+02     4.096663e-21
 9.900000e+02     5.164927e-21
 1.005000e+03     6.234345e-21
 1.025000e+03     8.016362e-21
 1.045000e+03     9.407356e-21
 1.065000e+03     1.115234e-20
 1.085000e+03     1.295372e-20
 1.105000e+03     1.453151e-20
 1.125000e+03     1.612243e-20
 1.145000e+03     1.745085e-20
 1.165000e+03     1.893844e-20
 1.185000e+03     2.007076e-20
 1.205000e+03     2.121964e-20
 1.215600e+03     2.171058e-20
 1.215670e+03     2.626032e-20
 1.216000e+03     2.625024e-20
 1.218000e+03     2.618037e-20
 1.221000e+03     2.606413e-20
 1.225000e+03     2.590738e-20
 1.230000e+03     2.588885e-20
 1.240000e+03     2.627924e-20
 1.250000e+03     2.665559e-20
 1.265000e+03     2.787200e-20
 1.285000e+03     2.889861e-20
 1.305000e+03     2.983247e-20
 1.325000e+03     3.069342e-20
 1.345000e+03     3.152324e-20
 1.365000e+03     3.241485e-20
 1.385000e+03     3.322303e-20
 1.405000e+03     3.377487e-20
 1.425000e+03     3.428961e-20
 1.442000e+03     3.486708e-20
 1.455000e+03     3.525237e-20
 1.475000e+03     3.549940e-20
 1.517000e+03     3.601547e-20
 1.595000e+03     3.605410e-20
 1.672000e+03     3.631338e-20
 1.745000e+03     3.615568e-20
 1.825000e+03     3.591787e-20
 1.905000e+03     3.426290e-20
 1.984000e+03     3.399675e-20
 2.065000e+03     3.363177e-20
 2.135000e+03     3.320984e-20
 2.215000e+03     3.275484e-20
 2.295000e+03     3.227580e-20
 2.375000e+03     3.177955e-20
 2.455000e+03     3.135331e-20
 2.525000e+03     3.091889e-20
 2.605000e+03     3.056100e-20
 2.685000e+03     3.034675e-20
 2.765000e+03     3.002853e-20
 2.845000e+03     2.966307e-20
 2.950000e+03     2.933115e-20
 3.110000e+03     2.885877e-20
 3.270000e+03     2.834356e-20
 3.430000e+03     2.783586e-20
 3.590000e+03     2.735792e-20
 3.730000e+03     2.726590e-20
 3.890000e+03     2.847542e-20
 4.050000e+03     2.974494e-20
 4.210000e+03     3.152462e-20
 4.370000e+03     3.296346e-20
 4.530000e+03     3.430052e-20
 4.690000e+03     3.545678e-20
 4.850000e+03     3.610882e-20
 5.010000e+03     3.666824e-20
 5.170000e+03     3.706958e-20
 5.330000e+03     3.740376e-20
 5.490000e+03     3.766859e-20
 5.650000e+03     3.790842e-20
 5.810000e+03     3.812749e-20
 5.970000e+03     3.816426e-20
 6.130000e+03     3.820411e-20
 6.290000e+03     3.817986e-20
 6.450000e+03     3.811267e-20
 6.610000e+03     3.802830e-20
 6.770000e+03     3.798026e-20
 6.930000e+03     3.791247e-20
 7.090000e+03     3.782153e-20
 7.250000e+03     3.773947e-20
 7.410000e+03     3.768751e-20
 7.570000e+03     3.768921e-20
 7.730000e+03     3.773692e-20
 7.890000e+03     3.778042e-20
 8.050000e+03     3.779956e-20
 8.210000e+03     3.784407e-20
 8.370000e+03     3.788947e-20
 8.530000e+03     3.793312e-20
 8.690000e+03     3.801293e-20
 8.850000e+03     3.818628e-20
 9.010000e+03     3.832055e-20
 9.170000e+03     3.845333e-20
 9.330000e+03     3.866300e-20
 9.490000e+03     3.886826e-20
 9.650000e+03     3.902515e-20
 9.810000e+03     3.917444e-20
 9.970000e+03     3.935974e-20
 1.050000e+04     3.967041e-20
 1.150000e+04     3.969641e-20
 1.250000e+04     3.948668e-20
 1.350000e+04     3.921510e-20
 1.450000e+04     3.907744e-20
 1.550000e+04     3.936459e-20
 1.650000e+04     3.931862e-20
 1.750000e+04     3.884203e-20
 1.850000e+04     3.811908e-20
 1.950000e+04     3.725460e-20
 2.050000e+04     3.634346e-20
 2.150000e+04     3.545524e-20
 2.250000e+04     3.464195e-20
 2.350000e+04     3.394630e-20
 2.450000e+04     3.340424e-20
 2.550000e+04     3.304755e-20
 2.650000e+04     3.290141e-20
 2.750000e+04     3.298157e-20
 2.850000e+04     3.329556e-20
 2.950000e+04     3.384557e-20
 3.050000e+04     3.463106e-20
 3.150000e+04     3.545867e-20
 3.250000e+04     3.620763e-20
 3.350000e+04     3.701115e-20
 3.450000e+04     3.786827e-20
 3.550000e+04     3.876071e-20
 3.650000e+04     3.968468e-20
 3.750000e+04     4.062390e-20
 3.850000e+04     4.155677e-20
 3.950000e+04     4.249160e-20
 4.050000e+04     4.343680e-20
 4.150000e+04     4.438910e-20
 4.250000e+04     4.534359e-20
 4.350000e+04     4.629795e-20
 4.450000e+04     4.724782e-20
 4.550000e+04     4.819045e-20
 4.650000e+04     4.912478e-20
 4.750000e+04     5.005085e-20
 4.850000e+04     5.096832e-20
 4.950000e+04     5.187777e-20
 5.050000e+04     5.278154e-20
 5.150000e+04     5.368343e-20
 5.250000e+04     5.458663e-20
 5.350000e+04     5.547646e-20
 5.450000e+04     5.611024e-20
 5.550000e+04     5.692833e-20
 5.650000e+04     5.785827e-20
 5.750000e+04     5.906515e-20
 5.850000e+04     5.990143e-20
 5.950000e+04     6.066549e-20
 6.050000e+04     6.214227e-20
 6.150000e+04     6.674804e-20
 6.250000e+04     7.554365e-20
 6.350000e+04     8.018170e-20
 6.450000e+04     8.106073e-20
 6.550000e+04     8.133834e-20
 6.650010e+04     8.175854e-20
 6.750010e+04     8.238838e-20
 6.850010e+04     8.285774e-20
 6.950010e+04     8.402758e-20
 7.020000e+04     8.565364e-20
 7.100000e+04     8.662505e-20
 7.180000e+04     8.776045e-20
 7.260000e+04     8.965418e-20
 7.340000e+04     9.238140e-20
 7.420000e+04     9.617952e-20
 7.500000e+04     1.014455e-19
 7.580000e+04     1.086819e-19
 7.660000e+04     1.166335e-19
 7.740000e+04     1.236595e-19
 7.820000e+04     1.297116e-19
 7.900000e+04     1.348896e-19
 7.980000e+04     1.387417e-19
 8.060000e+04     1.409441e-19
 8.140000e+04     1.419867e-19
 8.220000e+04     1.420993e-19
 8.300000e+04     1.419814e-19
 8.380000e+04     1.418093e-19
 8.460000e+04     1.416923e-19
 8.540000e+04     1.419416e-19
 8.620000e+04     1.428298e-19
 8.700000e+04     1.437486e-19
 8.780000e+04     1.435316e-19
 8.860000e+04     1.421400e-19
 8.940000e+04     1.400187e-19
 9.020000e+04     1.374946e-19
 9.100000e+04     1.346675e-19
 9.180000e+04     1.316942e-19
 9.260000e+04     1.287452e-19
 9.340000e+04     1.258328e-19
 9.420000e+04     1.229411e-19
 9.500000e+04     1.200770e-19
 9.580000e+04     1.173511e-19
 9.660000e+04     1.151691e-19
 9.740000e+04     1.131392e-19
 9.820000e+04     1.107417e-19
 9.900000e+04     1.082518e-19
 9.980000e+04     1.060970e-19
 1.006000e+05     1.039988e-19
 1.020000e+05     1.007682e-19
 1.040000e+05     9.689621e-20
 1.060000e+05     9.470511e-20
 1.080000e+05     9.330468e-20
 1.100000e+05     9.296185e-20
 1.120000e+05     1.003538e-19
 1.140000e+05     1.158340e-19
 1.160000e+05     1.190000e-19
 1.180000e+05     1.180952e-19
 1.200000e+05     1.177728e-19
 1.220000e+05     1.185873e-19
 1.240000e+05     1.185605e-19
 1.260000e+05     1.210468e-19
 1.280000e+05     1.276262e-19
 1.300000e+05     1.310869e-19
 1.320000e+05     1.272449e-19
 1.340000e+05     1.253648e-19
 1.360000e+05     1.232188e-19
 1.380000e+05     1.209252e-19
 1.400000e+05     1.185493e-19
 1.420000e+05     1.169708e-19
 1.440000e+05     1.153458e-19
 1.460000e+05     1.128501e-19
 1.480000e+05     1.105261e-19
 1.500000e+05     1.086188e-19
 1.520000e+05     1.069326e-19
 1.540000e+05     1.054473e-19
 1.560000e+05     1.063579e-19
 1.580000e+05     1.067321e-19
 1.600000e+05     1.057429e-19
 1.620000e+05     1.061420e-19
 1.640000e+05     1.075874e-19
 1.660000e+05     1.108424e-19
 1.680000e+05     1.125934e-19
 1.700000e+05     1.160571e-19
 1.720000e+05     1.198561e-19
 1.740000e+05     1.215279e-19
 1.760000e+05     1.226706e-19
 1.780000e+05     1.225118e-19
 1.800000e+05     1.224635e-19
 1.820000e+05     1.216421e-19
 1.840000e+05     1.211760e-19
 1.860000e+05     1.210984e-19
 1.880000e+05     1.244200e-19
 1.900000e+05     1.252499e-19
 1.920000e+05     1.246051e-19
 1.940000e+05     1.245252e-19
 1.960000e+05     1.237729e-19
 1.980000e+05     1.234017e-19
 2.000000e+05     1.228969e-19
 2.020000e+05     1.230318e-19
 2.040000e+05     1.232357e-19
 2.060000e+05     1.234541e-19
 2.080000e+05     1.238047e-19
 2.100000e+05     1.243657e-19
 2.120000e+05     1.251601e-19
 2.140000e+05     1.259173e-19
 2.160000e+05     1.267497e-19
 2.180000e+05     1.277115e-19
 2.200000e+05     1.287934e-19
 2.220000e+05     1.299839e-19
 2.240000e+05     1.311936e-19
 2.260000e+05     1.324305e-19
 2.280000e+05     1.337899e-19
 2.300000e+05     1.352461e-19
 2.320000e+05     1.367536e-19
 2.340000e+05     1.382541e-19
 2.360000e+05     1.398001e-19
 2.380000e+05     1.414318e-19
 2.400000e+05     1.430990e-19
 2.420000e+05     1.447555e-19
 2.440000e+05     1.464250e-19
 2.460000e+05     1.481647e-19
 2.480000e+05     1.499651e-19
 2.500000e+05     1.517771e-19
 2.520000e+05     1.535848e-19
 2.540000e+05     1.554069e-19
 2.560000e+05     1.573308e-19
 2.580000e+05     1.596541e-19
 2.600000e+05     1.624827e-19
 2.620000e+05     1.649426e-19
 2.640000e+05     1.668654e-19
 2.660000e+05     1.688065e-19
 2.680000e+05     1.709262e-19
 2.700000e+05     1.730245e-19
 2.720000e+05     1.752075e-19
 2.740000e+05     1.774813e-19
 2.760000e+05     1.798041e-19
 2.780000e+05     1.822446e-19
 2.800000e+05     1.848394e-19
 2.820000e+05     1.877932e-19
 2.840000e+05     1.908108e-19
 2.860000e+05     1.935099e-19
 2.880000e+05     1.960993e-19
 2.900000e+05     1.988383e-19
 2.920000e+05     2.016512e-19
 2.940000e+05     2.044737e-19
 2.960000e+05     2.074152e-19
 2.980000e+05     2.103814e-19
 3.000000e+05     2.133723e-19
 3.020000e+05     2.164987e-19
 3.040000e+05     2.197362e-19
 3.060000e+05     2.230349e-19
 3.080000e+05     2.264052e-19
 3.100000e+05     2.298315e-19
 3.120000e+05     2.333089e-19
 3.140000e+05     2.368674e-19
 3.160000e+05     2.405707e-19
 3.180000e+05     2.443751e-19
 3.200000e+05     2.482781e-19
 3.220000e+05     2.523376e-19
 3.240000e+05     2.565405e-19
 3.260000e+05     2.609149e-19
 3.280000e+05     2.654750e-19
 3.300000e+05     2.702343e-19
 3.320000e+05     2.753433e-19
 3.340000e+05     2.826979e-19
 3.360000e+05     2.931259e-19
 3.380000e+05     3.004322e-19
 3.400000e+05     3.051887e-19
 3.420000e+05     3.089589e-19
 3.440000e+05     3.130083e-19
 3.460000e+05     3.186879e-19
 3.480000e+05     3.289665e-19
 3.500000e+05     3.415948e-19
 3.520000e+05     3.484101e-19
 3.540000e+05     3.530072e-19
 3.560000e+05     3.556267e-19
 3.580000e+05     3.599613e-19
 3.600000e+05     3.652390e-19
 3.620000e+05     3.692971e-19
 3.640000e+05     3.733542e-19
 3.660000e+05     3.783439e-19
 3.680000e+05     3.830600e-19
 3.700000e+05     3.872624e-19
 3.720000e+05     3.918630e-19
 3.740000e+05     3.969141e-19
 3.760000e+05     4.019861e-19
 3.780000e+05     4.069931e-19
 3.800000e+05     4.120440e-19
 3.820000e+05     4.171573e-19
 3.840000e+05     4.222667e-19
 3.860000e+05     4.273768e-19
 3.880000e+05     4.325824e-19
 3.900000e+05     4.379312e-19
 3.920000e+05     4.433857e-19
 4.320000e+05     5.593803e-19
 4.760000e+05     6.973537e-19
 5.250000e+05     8.572890e-19
 5.790000e+05     1.036868e-18
 6.390000e+05     1.238256e-18
 7.040000e+05     1.458754e-18
 7.760000e+05     1.805487e-18
 8.560000e+05     2.320834e-18
 9.430000e+05     3.005546e-18
 1.040000e+06     3.840831e-18
 1.147000e+06     4.748763e-18
 1.264000e+06     5.620135e-18
 1.394000e+06     6.353562e-18
 1.537000e+06     6.847628e-18
 1.694000e+06     7.047854e-18
 1.868000e+06     6.945173e-18
 2.059000e+06     6.572817e-18
 2.270000e+06     5.991645e-18
 2.503000e+06     5.277660e-18
 2.760000e+06     4.506119e-18
 3.043000e+06     3.741584e-18
 3.354000e+06     3.030600e-18
 3.698000e+06     2.397798e-18
