## EBL from Khaire & Srianand 2018; Q18 Model with alpha=-1.8 
## Column1:wavelength (Angstrom);  Column2:EBL specific intensity J_nu (erg/s/cm^2/Hz/Sr)
## ===========================================================================================
 1.000000e-08     5.387099e-38
 1.122019e-08     7.829783e-38
 1.258925e-08     1.119364e-37
 1.412538e-08     1.568298e-37
 1.584893e-08     2.154292e-37
 1.778279e-08     2.905964e-37
 1.995263e-08     3.856260e-37
 2.238721e-08     5.042864e-37
 2.511887e-08     6.508871e-37
 2.818382e-08     8.303509e-37
 3.162278e-08     1.048321e-36
 3.548135e-08     1.311266e-36
 3.981071e-08     1.626624e-36
 4.466837e-08     2.002969e-36
 5.011870e-08     2.450180e-36
 5.623413e-08     2.979680e-36
 6.309576e-08     3.604666e-36
 7.079456e-08     4.340404e-36
 7.943284e-08     5.204589e-36
 8.912505e-08     6.217683e-36
 1.000000e-07     7.403433e-36
 1.122019e-07     8.789324e-36
 1.258925e-07     1.040720e-35
 1.412538e-07     1.229403e-35
 1.584892e-07     1.449255e-35
 1.778279e-07     1.705245e-35
 1.995263e-07     2.003120e-35
 2.238721e-07     2.349542e-35
 2.511887e-07     2.752240e-35
 2.818382e-07     3.220161e-35
 3.162278e-07     3.763690e-35
 3.548136e-07     4.394850e-35
 3.981071e-07     5.127568e-35
 4.466837e-07     5.978014e-35
 5.011870e-07     6.964889e-35
 5.623413e-07     8.109904e-35
 6.309576e-07     9.438192e-35
 7.079456e-07     1.097887e-34
 7.943284e-07     1.276573e-34
 8.912505e-07     1.483786e-34
 1.000000e-06     1.724063e-34
 1.122019e-06     2.002657e-34
 1.258925e-06     2.325654e-34
 1.412538e-06     2.700114e-34
 1.584893e-06     3.134205e-34
 1.778279e-06     3.637407e-34
 1.995263e-06     4.220700e-34
 2.238721e-06     4.896798e-34
 2.511887e-06     5.680452e-34
 2.818382e-06     6.588733e-34
 3.162278e-06     7.641452e-34
 3.548136e-06     8.861541e-34
 3.981071e-06     1.027556e-33
 4.466837e-06     1.191436e-33
 5.011870e-06     1.381357e-33
 5.623413e-06     1.601460e-33
 6.309576e-06     1.856537e-33
 7.079456e-06     2.152139e-33
 7.943284e-06     2.494706e-33
 8.912505e-06     2.891689e-33
 1.000000e-05     3.351738e-33
 1.122019e-05     3.884863e-33
 1.258925e-05     4.502658e-33
 1.412538e-05     5.218587e-33
 1.584893e-05     6.048216e-33
 1.778279e-05     7.009605e-33
 1.995263e-05     8.123685e-33
 2.238721e-05     9.414679e-33
 2.511887e-05     1.091070e-32
 2.818382e-05     1.264429e-32
 3.162278e-05     1.465317e-32
 3.548135e-05     1.698107e-32
 3.981071e-05     1.967860e-32
 4.466837e-05     2.280451e-32
 5.011870e-05     2.642676e-32
 5.623413e-05     3.062421e-32
 6.309577e-05     3.548817e-32
 7.079457e-05     4.112440e-32
 7.943284e-05     4.765565e-32
 8.912505e-05     5.522390e-32
 1.000000e-04     6.399393e-32
 1.122018e-04     7.415641e-32
 1.258926e-04     8.591537e-32
 1.412538e-04     9.926426e-32
 1.584893e-04     1.146345e-31
 1.778279e-04     1.324394e-31
 1.995262e-04     1.531223e-31
 2.238722e-04     1.771870e-31
 2.511887e-04     2.052191e-31
 2.818383e-04     2.379066e-31
 3.162278e-04     2.760604e-31
 3.548134e-04     3.206373e-31
 3.981073e-04     3.727688e-31
 4.466837e-04     4.337928e-31
 5.011873e-04     5.052937e-31
 5.623413e-04     5.891482e-31
 6.309572e-04     6.875813e-31
 7.079460e-04     8.032330e-31
 7.943284e-04     9.392351e-31
 8.912510e-04     1.099309e-30
 1.000000e-03     1.287878e-30
 1.122018e-03     1.510200e-30
 1.258926e-03     1.772536e-30
 1.412538e-03     2.082329e-30
 1.584893e-03     2.448451e-30
 1.778279e-03     2.881475e-30
 1.995262e-03     3.394003e-30
 2.238722e-03     4.001066e-30
 2.511887e-03     4.720588e-30
 2.818383e-03     5.573974e-30
 3.162278e-03     6.586785e-30
 3.548133e-03     7.789538e-30
 3.981073e-03     9.218728e-30
 4.466837e-03     1.091794e-29
 5.011873e-03     1.293936e-29
 5.623413e-03     1.534552e-29
 6.309573e-03     1.821162e-29
 7.079460e-03     2.162865e-29
 7.943284e-03     2.570754e-29
 8.912510e-03     3.058519e-29
 1.000000e-02     3.643206e-29
 1.122019e-02     4.346211e-29
 1.258925e-02     5.194415e-29
 1.412538e-02     6.221531e-29
 1.584894e-02     7.469374e-29
 1.778279e-02     8.989247e-29
 1.995263e-02     1.084330e-28
 2.238721e-02     1.310570e-28
 2.511887e-02     1.586417e-28
 2.818385e-02     1.922143e-28
 3.162277e-02     2.329707e-28
 3.548136e-02     2.823024e-28
 3.981071e-02     3.418230e-28
 4.466837e-02     4.134140e-28
 5.011876e-02     4.992699e-28
 5.623413e-02     6.019622e-28
 6.309576e-02     7.245201e-28
 7.079456e-02     8.705154e-28
 7.943284e-02     1.044183e-27
 8.912515e-02     1.250547e-27
 1.000000e-01     1.495579e-27
 1.122019e-01     1.786642e-27
 1.258925e-01     2.122959e-27
 1.412538e-01     2.494226e-27
 1.584894e-01     2.894155e-27
 1.778279e-01     3.318323e-27
 1.995263e-01     3.763223e-27
 2.238721e-01     4.225864e-27
 2.511887e-01     4.703659e-27
 2.818385e-01     5.194382e-27
 3.162278e-01     5.696158e-27
 3.548135e-01     6.207496e-27
 3.981071e-01     6.727237e-27
 4.466837e-01     7.254571e-27
 5.011876e-01     7.788987e-27
 5.623413e-01     8.330247e-27
 6.309576e-01     8.878193e-27
 7.079456e-01     9.433166e-27
 7.943284e-01     9.995533e-27
 8.912515e-01     1.056575e-26
 1.000000e+00     1.114437e-26
 1.122019e+00     1.173200e-26
 1.258925e+00     1.232920e-26
 1.412538e+00     1.293657e-26
 1.584894e+00     1.355453e-26
 1.778279e+00     1.418330e-26
 1.995263e+00     1.482283e-26
 2.238721e+00     1.547259e-26
 2.511887e+00     1.613133e-26
 2.818385e+00     1.679675e-26
 3.162278e+00     1.746494e-26
 3.548136e+00     1.812977e-26
 3.981071e+00     1.878174e-26
 4.466837e+00     1.940674e-26
 5.011876e+00     1.998439e-26
 5.623413e+00     2.048626e-26
 6.309576e+00     2.085022e-26
 7.079456e+00     2.091657e-26
 7.943284e+00     2.088473e-26
 8.912516e+00     2.056883e-26
 1.000000e+01     2.064140e-26
 1.122019e+01     2.046535e-26
 1.258925e+01     1.995719e-26
 1.412538e+01     1.935254e-26
 1.584894e+01     1.865102e-26
 1.778279e+01     1.766596e-26
 1.995263e+01     1.650882e-26
 2.238721e+01     1.523480e-26
 2.511887e+01     1.385604e-26
 2.818385e+01     1.245516e-26
 3.162278e+01     1.106955e-26
 3.548135e+01     9.752749e-27
 3.981071e+01     8.536445e-27
 4.466837e+01     7.444776e-27
 5.011876e+01     6.490393e-27
 5.623413e+01     5.665422e-27
 6.309576e+01     4.960204e-27
 7.079456e+01     4.363279e-27
 7.943284e+01     3.855769e-27
 8.912515e+01     3.426730e-27
 1.000000e+02     3.066619e-27
 1.120000e+02     2.768577e-27
 1.250000e+02     2.527824e-27
 1.400000e+02     2.321503e-27
 1.550000e+02     2.168539e-27
 1.650000e+02     2.088192e-27
 1.750000e+02     2.023440e-27
 1.850000e+02     1.973448e-27
 1.900000e+02     1.961127e-27
 1.950000e+02     1.969230e-27
 2.000000e+02     2.018791e-27
 2.050000e+02     2.158306e-27
 2.100000e+02     2.484813e-27
 2.150000e+02     3.188325e-27
 2.180000e+02     3.930241e-27
 2.210000e+02     5.054168e-27
 2.240000e+02     6.734394e-27
 2.260000e+02     8.281373e-27
 2.270000e+02     9.216743e-27
 2.275000e+02     9.730673e-27
 2.278400e+02     1.009909e-26
 2.380000e+02     1.273354e-23
 2.500000e+02     2.782943e-23
 2.700000e+02     3.920209e-23
 2.900000e+02     4.535239e-23
 3.035000e+02     4.854611e-23
 3.037800e+02     5.554754e-23
 3.045000e+02     5.516216e-23
 3.060000e+02     5.448357e-23
 3.080000e+02     5.384802e-23
 3.100000e+02     5.337633e-23
 3.120000e+02     5.308824e-23
 3.150000e+02     5.286589e-23
 3.200000e+02     5.301850e-23
 3.250000e+02     5.354429e-23
 3.300000e+02     5.428455e-23
 3.400000e+02     5.606947e-23
 3.600000e+02     5.991786e-23
 3.800000e+02     6.385412e-23
 4.050000e+02     6.874010e-23
 4.250000e+02     7.264248e-23
 4.500000e+02     7.749823e-23
 4.650000e+02     8.038717e-23
 4.750000e+02     8.232119e-23
 4.820000e+02     8.366388e-23
 4.870000e+02     8.464571e-23
 4.910000e+02     8.540913e-23
 4.950000e+02     8.615774e-23
 4.980000e+02     8.672952e-23
 5.000000e+02     8.709186e-23
 5.020000e+02     8.749544e-23
 5.039800e+02     8.789393e-23
 5.100000e+02     9.502324e-23
 5.250000e+02     1.059137e-22
 5.600000e+02     1.184001e-22
 6.000000e+02     1.286356e-22
 6.500000e+02     1.410622e-22
 7.000000e+02     1.553829e-22
 7.500000e+02     1.733221e-22
 8.000000e+02     1.968803e-22
 8.300000e+02     2.146436e-22
 8.600000e+02     2.359948e-22
 8.800000e+02     2.524670e-22
 8.900000e+02     2.613954e-22
 8.960000e+02     2.669856e-22
 9.000000e+02     2.709088e-22
 9.030000e+02     2.738545e-22
 9.060000e+02     2.768478e-22
 9.090000e+02     2.799146e-22
 9.117800e+02     2.827903e-22
 9.300000e+02     7.560617e-22
 9.500000e+02     1.708512e-21
 9.750000e+02     3.203800e-21
 9.900000e+02     3.934585e-21
 1.005000e+03     4.804066e-21
 1.025000e+03     6.233359e-21
 1.045000e+03     7.413242e-21
 1.065000e+03     9.104746e-21
 1.085000e+03     1.076109e-20
 1.105000e+03     1.238455e-20
 1.125000e+03     1.407481e-20
 1.145000e+03     1.556330e-20
 1.165000e+03     1.716063e-20
 1.185000e+03     1.855882e-20
 1.205000e+03     1.991888e-20
 1.215600e+03     2.050875e-20
 1.215670e+03     2.233635e-20
 1.216000e+03     2.235135e-20
 1.218000e+03     2.244255e-20
 1.221000e+03     2.257900e-20
 1.225000e+03     2.276020e-20
 1.230000e+03     2.295816e-20
 1.240000e+03     2.352064e-20
 1.250000e+03     2.418030e-20
 1.265000e+03     2.522664e-20
 1.285000e+03     2.646431e-20
 1.305000e+03     2.802625e-20
 1.325000e+03     2.947063e-20
 1.345000e+03     3.070103e-20
 1.365000e+03     3.204818e-20
 1.385000e+03     3.342005e-20
 1.405000e+03     3.465518e-20
 1.425000e+03     3.561646e-20
 1.442000e+03     3.652994e-20
 1.455000e+03     3.727517e-20
 1.475000e+03     3.831433e-20
 1.517000e+03     4.009298e-20
 1.595000e+03     4.273248e-20
 1.672000e+03     4.493221e-20
 1.745000e+03     4.683096e-20
 1.825000e+03     4.849823e-20
 1.905000e+03     4.961360e-20
 1.984000e+03     5.047896e-20
 2.065000e+03     5.108867e-20
 2.135000e+03     5.142735e-20
 2.215000e+03     5.159128e-20
 2.295000e+03     5.171755e-20
 2.375000e+03     5.177457e-20
 2.455000e+03     5.185825e-20
 2.525000e+03     5.184847e-20
 2.605000e+03     5.198477e-20
 2.685000e+03     5.230888e-20
 2.765000e+03     5.239659e-20
 2.845000e+03     5.233418e-20
 2.950000e+03     5.247025e-20
 3.110000e+03     5.261667e-20
 3.270000e+03     5.262483e-20
 3.430000e+03     5.238605e-20
 3.590000e+03     5.230671e-20
 3.730000e+03     5.270954e-20
 3.890000e+03     5.541927e-20
 4.050000e+03     5.893373e-20
 4.210000e+03     6.334545e-20
 4.370000e+03     6.688983e-20
 4.530000e+03     7.009709e-20
 4.690000e+03     7.295706e-20
 4.850000e+03     7.475175e-20
 5.010000e+03     7.654000e-20
 5.170000e+03     7.804451e-20
 5.330000e+03     7.949947e-20
 5.490000e+03     8.082223e-20
 5.650000e+03     8.207999e-20
 5.810000e+03     8.331708e-20
 5.970000e+03     8.419710e-20
 6.130000e+03     8.506129e-20
 6.290000e+03     8.579716e-20
 6.450000e+03     8.640721e-20
 6.610000e+03     8.694423e-20
 6.770000e+03     8.753085e-20
 6.930000e+03     8.801351e-20
 7.090000e+03     8.840293e-20
 7.250000e+03     8.875561e-20
 7.410000e+03     8.910124e-20
 7.570000e+03     8.950233e-20
 7.730000e+03     8.994974e-20
 7.890000e+03     9.035972e-20
 8.050000e+03     9.071356e-20
 8.210000e+03     9.107787e-20
 8.370000e+03     9.143501e-20
 8.530000e+03     9.176624e-20
 8.690000e+03     9.212113e-20
 8.850000e+03     9.263519e-20
 9.010000e+03     9.310766e-20
 9.170000e+03     9.360098e-20
 9.330000e+03     9.415296e-20
 9.490000e+03     9.473846e-20
 9.650000e+03     9.519949e-20
 9.810000e+03     9.569243e-20
 9.970000e+03     9.617273e-20
 1.050000e+04     9.723906e-20
 1.150000e+04     9.796360e-20
 1.250000e+04     9.811839e-20
 1.350000e+04     9.808553e-20
 1.450000e+04     9.821014e-20
 1.550000e+04     9.908021e-20
 1.650000e+04     9.955978e-20
 1.750000e+04     9.895068e-20
 1.850000e+04     9.718146e-20
 1.950000e+04     9.450622e-20
 2.050000e+04     9.171023e-20
 2.150000e+04     8.888469e-20
 2.250000e+04     8.598586e-20
 2.350000e+04     8.244873e-20
 2.450000e+04     7.883624e-20
 2.550000e+04     7.626154e-20
 2.650000e+04     7.429101e-20
 2.750000e+04     7.315513e-20
 2.850000e+04     7.239838e-20
 2.950000e+04     7.188125e-20
 3.050000e+04     7.157039e-20
 3.150000e+04     7.148553e-20
 3.250000e+04     7.165376e-20
 3.350000e+04     7.210281e-20
 3.450000e+04     7.289621e-20
 3.550000e+04     7.413733e-20
 3.650000e+04     7.565074e-20
 3.750000e+04     7.723696e-20
 3.850000e+04     7.879905e-20
 3.950000e+04     8.030995e-20
 4.050000e+04     8.179227e-20
 4.150000e+04     8.328724e-20
 4.250000e+04     8.481989e-20
 4.350000e+04     8.638232e-20
 4.450000e+04     8.793412e-20
 4.550000e+04     8.942280e-20
 4.650000e+04     9.084810e-20
 4.750000e+04     9.230692e-20
 4.850000e+04     9.387281e-20
 4.950000e+04     9.549637e-20
 5.050000e+04     9.722938e-20
 5.150000e+04     9.934121e-20
 5.250000e+04     1.024940e-19
 5.350000e+04     1.063686e-19
 5.450000e+04     1.100007e-19
 5.550000e+04     1.139476e-19
 5.650000e+04     1.181733e-19
 5.750000e+04     1.223403e-19
 5.850000e+04     1.251475e-19
 5.950000e+04     1.275351e-19
 6.050000e+04     1.315892e-19
 6.150000e+04     1.388589e-19
 6.250000e+04     1.552089e-19
 6.350000e+04     1.683824e-19
 6.450000e+04     1.759113e-19
 6.550000e+04     1.813525e-19
 6.650010e+04     1.861927e-19
 6.750010e+04     1.897679e-19
 6.850010e+04     1.921455e-19
 6.950010e+04     1.964737e-19
 7.020000e+04     2.023438e-19
 7.100000e+04     2.089196e-19
 7.180000e+04     2.162031e-19
 7.260000e+04     2.240223e-19
 7.340000e+04     2.329977e-19
 7.420000e+04     2.442735e-19
 7.500000e+04     2.590788e-19
 7.580000e+04     2.767684e-19
 7.660000e+04     2.962569e-19
 7.740000e+04     3.147868e-19
 7.820000e+04     3.323200e-19
 7.900000e+04     3.482200e-19
 7.980000e+04     3.602522e-19
 8.060000e+04     3.688706e-19
 8.140000e+04     3.743347e-19
 8.220000e+04     3.774381e-19
 8.300000e+04     3.791106e-19
 8.380000e+04     3.798667e-19
 8.460000e+04     3.803279e-19
 8.540000e+04     3.813052e-19
 8.620000e+04     3.829677e-19
 8.700000e+04     3.840730e-19
 8.780000e+04     3.835747e-19
 8.860000e+04     3.816748e-19
 8.940000e+04     3.789458e-19
 9.020000e+04     3.757732e-19
 9.100000e+04     3.719319e-19
 9.180000e+04     3.674300e-19
 9.260000e+04     3.622647e-19
 9.340000e+04     3.563346e-19
 9.420000e+04     3.498341e-19
 9.500000e+04     3.430446e-19
 9.580000e+04     3.363102e-19
 9.660000e+04     3.302825e-19
 9.740000e+04     3.249705e-19
 9.820000e+04     3.198087e-19
 9.900000e+04     3.149434e-19
 9.980000e+04     3.102624e-19
 1.006000e+05     3.056641e-19
 1.020000e+05     2.975228e-19
 1.040000e+05     2.862980e-19
 1.060000e+05     2.783260e-19
 1.080000e+05     2.736079e-19
 1.100000e+05     2.727104e-19
 1.120000e+05     2.835279e-19
 1.140000e+05     3.076798e-19
 1.160000e+05     3.202832e-19
 1.180000e+05     3.270274e-19
 1.200000e+05     3.332468e-19
 1.220000e+05     3.391056e-19
 1.240000e+05     3.469036e-19
 1.260000e+05     3.601362e-19
 1.280000e+05     3.855686e-19
 1.300000e+05     4.085220e-19
 1.320000e+05     4.138995e-19
 1.340000e+05     4.158559e-19
 1.360000e+05     4.156475e-19
 1.380000e+05     4.123724e-19
 1.400000e+05     4.087327e-19
 1.420000e+05     4.069267e-19
 1.440000e+05     4.067748e-19
 1.460000e+05     4.064672e-19
 1.480000e+05     4.051122e-19
 1.500000e+05     4.023178e-19
 1.520000e+05     3.994923e-19
 1.540000e+05     3.964573e-19
 1.560000e+05     3.957623e-19
 1.580000e+05     3.950981e-19
 1.600000e+05     3.940669e-19
 1.620000e+05     3.943562e-19
 1.640000e+05     3.975136e-19
 1.660000e+05     4.042540e-19
 1.680000e+05     4.097503e-19
 1.700000e+05     4.172773e-19
 1.720000e+05     4.275102e-19
 1.740000e+05     4.344272e-19
 1.760000e+05     4.411283e-19
 1.780000e+05     4.457194e-19
 1.800000e+05     4.502722e-19
 1.820000e+05     4.536636e-19
 1.840000e+05     4.571477e-19
 1.860000e+05     4.614547e-19
 1.880000e+05     4.712850e-19
 1.900000e+05     4.778519e-19
 1.920000e+05     4.843734e-19
 1.940000e+05     4.919430e-19
 1.960000e+05     5.003029e-19
 1.980000e+05     5.093195e-19
 2.000000e+05     5.183552e-19
 2.020000e+05     5.270327e-19
 2.040000e+05     5.354819e-19
 2.060000e+05     5.429754e-19
 2.080000e+05     5.494818e-19
 2.100000e+05     5.578642e-19
 2.120000e+05     5.665745e-19
 2.140000e+05     5.749676e-19
 2.160000e+05     5.859076e-19
 2.180000e+05     5.973592e-19
 2.200000e+05     6.070701e-19
 2.220000e+05     6.174290e-19
 2.240000e+05     6.297121e-19
 2.260000e+05     6.410148e-19
 2.280000e+05     6.513966e-19
 2.300000e+05     6.635177e-19
 2.320000e+05     6.770796e-19
 2.340000e+05     6.904943e-19
 2.360000e+05     7.033661e-19
 2.380000e+05     7.173722e-19
 2.400000e+05     7.328671e-19
 2.420000e+05     7.480012e-19
 2.440000e+05     7.622957e-19
 2.460000e+05     7.776219e-19
 2.480000e+05     7.944990e-19
 2.500000e+05     8.116192e-19
 2.520000e+05     8.278728e-19
 2.540000e+05     8.441390e-19
 2.560000e+05     8.618077e-19
 2.580000e+05     8.810753e-19
 2.600000e+05     9.008511e-19
 2.620000e+05     9.192656e-19
 2.640000e+05     9.372406e-19
 2.660000e+05     9.564945e-19
 2.680000e+05     9.771599e-19
 2.700000e+05     9.980977e-19
 2.720000e+05     1.018288e-18
 2.740000e+05     1.037773e-18
 2.760000e+05     1.058376e-18
 2.780000e+05     1.081020e-18
 2.800000e+05     1.104805e-18
 2.820000e+05     1.128639e-18
 2.840000e+05     1.151088e-18
 2.860000e+05     1.172461e-18
 2.880000e+05     1.194028e-18
 2.900000e+05     1.217669e-18
 2.920000e+05     1.241272e-18
 2.940000e+05     1.265514e-18
 2.960000e+05     1.290020e-18
 2.980000e+05     1.314565e-18
 3.000000e+05     1.338207e-18
 3.020000e+05     1.363357e-18
 3.040000e+05     1.389257e-18
 3.060000e+05     1.414867e-18
 3.080000e+05     1.441185e-18
 3.100000e+05     1.466763e-18
 3.120000e+05     1.491348e-18
 3.140000e+05     1.517037e-18
 3.160000e+05     1.544684e-18
 3.180000e+05     1.572317e-18
 3.200000e+05     1.601115e-18
 3.220000e+05     1.631232e-18
 3.240000e+05     1.661347e-18
 3.260000e+05     1.691554e-18
 3.280000e+05     1.722215e-18
 3.300000e+05     1.752728e-18
 3.320000e+05     1.784535e-18
 3.340000e+05     1.824466e-18
 3.360000e+05     1.868190e-18
 3.380000e+05     1.909193e-18
 3.400000e+05     1.940734e-18
 3.420000e+05     1.971928e-18
 3.440000e+05     2.007799e-18
 3.460000e+05     2.042971e-18
 3.480000e+05     2.084529e-18
 3.500000e+05     2.131332e-18
 3.520000e+05     2.167926e-18
 3.540000e+05     2.199707e-18
 3.560000e+05     2.230762e-18
 3.580000e+05     2.258937e-18
 3.600000e+05     2.288502e-18
 3.620000e+05     2.319500e-18
 3.640000e+05     2.347976e-18
 3.660000e+05     2.372793e-18
 3.680000e+05     2.400109e-18
 3.700000e+05     2.429874e-18
 3.720000e+05     2.457724e-18
 3.740000e+05     2.487119e-18
 3.760000e+05     2.518028e-18
 3.780000e+05     2.547777e-18
 3.800000e+05     2.579016e-18
 3.820000e+05     2.611680e-18
 3.840000e+05     2.643446e-18
 3.860000e+05     2.676360e-18
 3.880000e+05     2.710704e-18
 3.900000e+05     2.744972e-18
 3.920000e+05     2.780243e-18
 4.320000e+05     3.521721e-18
 4.760000e+05     4.363943e-18
 5.250000e+05     5.335024e-18
 5.790000e+05     6.399854e-18
 6.390000e+05     7.531860e-18
 7.040000e+05     8.605780e-18
 7.760000e+05     9.617618e-18
 8.560000e+05     1.056947e-17
 9.430000e+05     1.145338e-17
 1.040000e+06     1.230288e-17
 1.147000e+06     1.310364e-17
 1.264000e+06     1.382032e-17
 1.394000e+06     1.441213e-17
 1.537000e+06     1.479936e-17
 1.694000e+06     1.490921e-17
 1.868000e+06     1.469093e-17
 2.059000e+06     1.412943e-17
 2.270000e+06     1.324609e-17
 2.503000e+06     1.209979e-17
 2.760000e+06     1.077387e-17
 3.043000e+06     9.361191e-18
 3.354000e+06     7.948730e-18
 3.698000e+06     6.597380e-18
