## EBL from Khaire & Srianand 2018; Q18 Model with alpha=-1.8 
## Column1:wavelength (Angstrom);  Column2:EBL specific intensity J_nu (erg/s/cm^2/Hz/Sr)
## ===========================================================================================
 1.000000e-08     1.077852e-43
 1.122019e-08     1.569041e-43
 1.258925e-08     2.234308e-43
 1.412538e-08     3.112143e-43
 1.584893e-08     4.249205e-43
 1.778279e-08     5.699254e-43
 1.995263e-08     7.523669e-43
 2.238721e-08     9.792416e-43
 2.511887e-08     1.258542e-42
 2.818382e-08     1.599401e-42
 3.162278e-08     2.012293e-42
 3.548135e-08     2.509233e-42
 3.981071e-08     3.104050e-42
 4.466837e-08     3.812689e-42
 5.011870e-08     4.653533e-42
 5.623413e-08     5.647855e-42
 6.309576e-08     6.820232e-42
 7.079456e-08     8.199103e-42
 7.943284e-08     9.817441e-42
 8.912505e-08     1.171338e-41
 1.000000e-07     1.393118e-41
 1.122019e-07     1.652206e-41
 1.258925e-07     1.954538e-41
 1.412538e-07     2.307005e-41
 1.584892e-07     2.717575e-41
 1.778279e-07     3.195508e-41
 1.995263e-07     3.751518e-41
 2.238721e-07     4.398020e-41
 2.511887e-07     5.149424e-41
 2.818382e-07     6.022408e-41
 3.162278e-07     7.036327e-41
 3.548136e-07     8.213591e-41
 3.981071e-07     9.580162e-41
 4.466837e-07     1.116618e-40
 5.011870e-07     1.300649e-40
 5.623413e-07     1.514158e-40
 6.309576e-07     1.761828e-40
 7.079456e-07     2.049087e-40
 7.943284e-07     2.382232e-40
 8.912505e-07     2.768551e-40
 1.000000e-06     3.216499e-40
 1.122019e-06     3.735868e-40
 1.258925e-06     4.337997e-40
 1.412538e-06     5.036051e-40
 1.584893e-06     5.845254e-40
 1.778279e-06     6.783271e-40
 1.995263e-06     7.870570e-40
 2.238721e-06     9.130847e-40
 2.511887e-06     1.059160e-39
 2.818382e-06     1.228464e-39
 3.162278e-06     1.424689e-39
 3.548136e-06     1.652110e-39
 3.981071e-06     1.915678e-39
 4.466837e-06     2.221140e-39
 5.011870e-06     2.575142e-39
 5.623413e-06     2.985400e-39
 6.309576e-06     3.460843e-39
 7.079456e-06     4.011818e-39
 7.943284e-06     4.650330e-39
 8.912505e-06     5.390267e-39
 1.000000e-05     6.247750e-39
 1.122019e-05     7.241435e-39
 1.258925e-05     8.392936e-39
 1.412538e-05     9.727344e-39
 1.584893e-05     1.127367e-38
 1.778279e-05     1.306558e-38
 1.995263e-05     1.514209e-38
 2.238721e-05     1.754834e-38
 2.511887e-05     2.033672e-38
 2.818382e-05     2.356789e-38
 3.162278e-05     2.731219e-38
 3.548135e-05     3.165107e-38
 3.981071e-05     3.667891e-38
 4.466837e-05     4.250517e-38
 5.011870e-05     4.925653e-38
 5.623413e-05     5.707999e-38
 6.309577e-05     6.614575e-38
 7.079457e-05     7.665090e-38
 7.943284e-05     8.882422e-38
 8.912505e-05     1.029303e-37
 1.000000e-04     1.192764e-37
 1.122018e-04     1.382178e-37
 1.258926e-04     1.601400e-37
 1.412538e-04     1.848550e-37
 1.584893e-04     2.134131e-37
 1.778279e-04     2.465802e-37
 1.995262e-04     2.851554e-37
 2.238722e-04     3.300663e-37
 2.511887e-04     3.824037e-37
 2.818383e-04     4.434549e-37
 3.162278e-04     5.147394e-37
 3.548134e-04     5.980522e-37
 3.981073e-04     6.955165e-37
 4.466837e-04     8.096432e-37
 5.011873e-04     9.434069e-37
 5.623413e-04     1.100332e-36
 6.309572e-04     1.284597e-36
 7.079460e-04     1.501163e-36
 7.943284e-04     1.755913e-36
 8.912510e-04     2.055844e-36
 1.000000e-03     2.409270e-36
 1.122018e-03     2.826077e-36
 1.258926e-03     3.318041e-36
 1.412538e-03     3.899161e-36
 1.584893e-03     4.586128e-36
 1.778279e-03     5.398838e-36
 1.995262e-03     6.361002e-36
 2.238722e-03     7.500914e-36
 2.511887e-03     8.852316e-36
 2.818383e-03     1.045551e-35
 3.162278e-03     1.235862e-35
 3.548133e-03     1.461911e-35
 3.981073e-03     1.730573e-35
 4.466837e-03     2.050057e-35
 5.011873e-03     2.430195e-35
 5.623413e-03     2.882775e-35
 6.309573e-03     3.421987e-35
 7.079460e-03     4.065026e-35
 7.943284e-03     4.832920e-35
 8.912510e-03     5.751687e-35
 1.000000e-02     6.853852e-35
 1.122019e-02     8.180332e-35
 1.258925e-02     9.782604e-35
 1.412538e-02     1.172517e-34
 1.584894e-02     1.408786e-34
 1.778279e-02     1.696828e-34
 1.995263e-02     2.048410e-34
 2.238721e-02     2.477521e-34
 2.511887e-02     3.000632e-34
 2.818385e-02     3.636966e-34
 3.162277e-02     4.408858e-34
 3.548136e-02     5.342259e-34
 3.981071e-02     6.467261e-34
 4.466837e-02     7.818968e-34
 5.011876e-02     9.438371e-34
 5.623413e-02     1.137357e-33
 6.309576e-02     1.368131e-33
 7.079456e-02     1.642857e-33
 7.943284e-02     1.969487e-33
 8.912515e-02     2.357460e-33
 1.000000e-01     2.818004e-33
 1.122019e-01     3.364910e-33
 1.258925e-01     3.993583e-33
 1.412538e-01     4.675691e-33
 1.584894e-01     5.402503e-33
 1.778279e-01     6.168302e-33
 1.995263e-01     6.967970e-33
 2.238721e-01     7.796761e-33
 2.511887e-01     8.650455e-33
 2.818385e-01     9.525400e-33
 3.162278e-01     1.041856e-32
 3.548135e-01     1.132757e-32
 3.981071e-01     1.225064e-32
 4.466837e-01     1.318657e-32
 5.011876e-01     1.413469e-32
 5.623413e-01     1.509476e-32
 6.309576e-01     1.605975e-32
 7.079456e-01     1.703940e-32
 7.943284e-01     1.803053e-32
 8.912515e-01     1.903224e-32
 1.000000e+00     2.004350e-32
 1.122019e+00     2.106231e-32
 1.258925e+00     2.208503e-32
 1.412538e+00     2.310548e-32
 1.584894e+00     2.411359e-32
 1.778279e+00     2.509362e-32
 1.995263e+00     2.602161e-32
 2.238721e+00     2.686206e-32
 2.511887e+00     2.756414e-32
 2.818385e+00     2.805793e-32
 3.162278e+00     2.825268e-32
 3.548136e+00     2.804046e-32
 3.981071e+00     2.730976e-32
 4.466837e+00     2.597290e-32
 5.011876e+00     2.400477e-32
 5.623413e+00     2.146113e-32
 6.309576e+00     1.854027e-32
 7.079456e+00     1.537072e-32
 7.943284e+00     1.248025e-32
 8.912516e+00     9.981045e-33
 1.000000e+01     7.909486e-33
 1.122019e+01     6.241993e-33
 1.258925e+01     4.929150e-33
 1.412538e+01     3.908348e-33
 1.584894e+01     3.119176e-33
 1.778279e+01     2.509322e-33
 1.995263e+01     2.036199e-33
 2.238721e+01     1.666677e-33
 2.511887e+01     1.375347e-33
 2.818385e+01     1.143665e-33
 3.162278e+01     9.576941e-34
 3.548135e+01     8.069395e-34
 3.981071e+01     6.837940e-34
 4.466837e+01     5.824576e-34
 5.011876e+01     4.985532e-34
 5.623413e+01     4.285983e-34
 6.309576e+01     3.700994e-34
 7.079456e+01     3.209271e-34
 7.943284e+01     2.794995e-34
 8.912515e+01     2.444661e-34
 1.000000e+02     2.148494e-34
 1.120000e+02     1.900816e-34
 1.250000e+02     1.696309e-34
 1.400000e+02     1.516754e-34
 1.550000e+02     1.378635e-34
 1.650000e+02     1.303613e-34
 1.750000e+02     1.240231e-34
 1.850000e+02     1.189420e-34
 1.900000e+02     1.174982e-34
 1.950000e+02     1.177816e-34
 2.000000e+02     1.217554e-34
 2.050000e+02     1.335416e-34
 2.100000e+02     1.614327e-34
 2.150000e+02     2.214815e-34
 2.180000e+02     2.845750e-34
 2.210000e+02     3.797773e-34
 2.240000e+02     5.214819e-34
 2.260000e+02     6.514351e-34
 2.270000e+02     7.298224e-34
 2.275000e+02     7.728464e-34
 2.278400e+02     8.036660e-34
 2.380000e+02     1.185383e-24
 2.500000e+02     1.211432e-24
 2.700000e+02     1.253295e-24
 2.900000e+02     1.293154e-24
 3.035000e+02     1.318926e-24
 3.037800e+02     1.319447e-24
 3.045000e+02     1.320775e-24
 3.060000e+02     1.323562e-24
 3.080000e+02     1.327284e-24
 3.100000e+02     1.330998e-24
 3.120000e+02     1.334690e-24
 3.150000e+02     1.340174e-24
 3.200000e+02     1.349236e-24
 3.250000e+02     1.358147e-24
 3.300000e+02     1.366955e-24
 3.400000e+02     1.384274e-24
 3.600000e+02     1.417641e-24
 3.800000e+02     1.449535e-24
 4.050000e+02     1.487509e-24
 4.250000e+02     1.516861e-24
 4.500000e+02     1.551962e-24
 4.650000e+02     1.573335e-24
 4.750000e+02     1.587255e-24
 4.820000e+02     1.596906e-24
 4.870000e+02     1.603669e-24
 4.910000e+02     1.609079e-24
 4.950000e+02     1.614453e-24
 4.980000e+02     1.618428e-24
 5.000000e+02     1.621097e-24
 5.020000e+02     1.624078e-24
 5.039800e+02     1.627093e-24
 5.100000e+02     2.302854e-24
 5.250000e+02     2.316112e-24
 5.600000e+02     2.348944e-24
 6.000000e+02     2.395983e-24
 6.500000e+02     2.499051e-24
 7.000000e+02     2.670511e-24
 7.500000e+02     2.958227e-24
 8.000000e+02     3.390217e-24
 8.300000e+02     3.744713e-24
 8.600000e+02     4.180699e-24
 8.800000e+02     4.521667e-24
 8.900000e+02     4.708357e-24
 8.960000e+02     4.825696e-24
 9.000000e+02     4.906025e-24
 9.030000e+02     4.967709e-24
 9.060000e+02     5.030214e-24
 9.090000e+02     5.094052e-24
 9.117800e+02     5.153893e-24
 9.300000e+02     9.787626e-22
 9.500000e+02     2.064838e-21
 9.750000e+02     4.351180e-21
 9.900000e+02     5.048816e-21
 1.005000e+03     6.097173e-21
 1.025000e+03     7.719844e-21
 1.045000e+03     9.049537e-21
 1.065000e+03     1.074541e-20
 1.085000e+03     1.241056e-20
 1.105000e+03     1.379383e-20
 1.125000e+03     1.529034e-20
 1.145000e+03     1.629505e-20
 1.165000e+03     1.727218e-20
 1.185000e+03     1.781214e-20
 1.205000e+03     1.820551e-20
 1.215600e+03     1.830827e-20
 1.215670e+03     2.339669e-20
 1.216000e+03     2.339787e-20
 1.218000e+03     2.340122e-20
 1.221000e+03     2.339464e-20
 1.225000e+03     2.337054e-20
 1.230000e+03     2.335349e-20
 1.240000e+03     2.335693e-20
 1.250000e+03     2.330448e-20
 1.265000e+03     2.329127e-20
 1.285000e+03     2.350216e-20
 1.305000e+03     2.382747e-20
 1.325000e+03     2.387268e-20
 1.345000e+03     2.378325e-20
 1.365000e+03     2.410441e-20
 1.385000e+03     2.426486e-20
 1.405000e+03     2.419258e-20
 1.425000e+03     2.394896e-20
 1.442000e+03     2.388059e-20
 1.455000e+03     2.404488e-20
 1.475000e+03     2.414166e-20
 1.517000e+03     2.131220e-20
 1.595000e+03     2.102056e-20
 1.672000e+03     2.073104e-20
 1.745000e+03     2.045325e-20
 1.825000e+03     2.024046e-20
 1.905000e+03     1.991414e-20
 1.984000e+03     1.962843e-20
 2.065000e+03     1.936023e-20
 2.135000e+03     1.903047e-20
 2.215000e+03     1.872087e-20
 2.295000e+03     1.837975e-20
 2.375000e+03     1.803847e-20
 2.455000e+03     1.771954e-20
 2.525000e+03     1.740481e-20
 2.605000e+03     1.713752e-20
 2.685000e+03     1.697022e-20
 2.765000e+03     1.676232e-20
 2.845000e+03     1.650650e-20
 2.950000e+03     1.627493e-20
 3.110000e+03     1.596388e-20
 3.270000e+03     1.558587e-20
 3.430000e+03     1.520904e-20
 3.590000e+03     1.485682e-20
 3.730000e+03     1.473071e-20
 3.890000e+03     1.571261e-20
 4.050000e+03     1.644149e-20
 4.210000e+03     1.795570e-20
 4.370000e+03     1.908792e-20
 4.530000e+03     1.992658e-20
 4.690000e+03     2.051025e-20
 4.850000e+03     2.068922e-20
 5.010000e+03     2.058055e-20
 5.170000e+03     2.042955e-20
 5.330000e+03     2.022346e-20
 5.490000e+03     2.005031e-20
 5.650000e+03     1.992588e-20
 5.810000e+03     1.985953e-20
 5.970000e+03     1.975625e-20
 6.130000e+03     1.972258e-20
 6.290000e+03     1.964612e-20
 6.450000e+03     1.960753e-20
 6.610000e+03     1.955383e-20
 6.770000e+03     1.953788e-20
 6.930000e+03     1.950046e-20
 7.090000e+03     1.944671e-20
 7.250000e+03     1.938627e-20
 7.410000e+03     1.935266e-20
 7.570000e+03     1.934728e-20
 7.730000e+03     1.939027e-20
 7.890000e+03     1.941537e-20
 8.050000e+03     1.943453e-20
 8.210000e+03     1.946076e-20
 8.370000e+03     1.949037e-20
 8.530000e+03     1.952785e-20
 8.690000e+03     1.959224e-20
 8.850000e+03     1.972375e-20
 9.010000e+03     1.983588e-20
 9.170000e+03     1.993776e-20
 9.330000e+03     2.005688e-20
 9.490000e+03     2.021467e-20
 9.650000e+03     2.029926e-20
 9.810000e+03     2.040440e-20
 9.970000e+03     2.050360e-20
 1.050000e+04     2.068519e-20
 1.150000e+04     2.045622e-20
 1.250000e+04     2.015384e-20
 1.350000e+04     1.986869e-20
 1.450000e+04     1.979277e-20
 1.550000e+04     2.005151e-20
 1.650000e+04     2.026859e-20
 1.750000e+04     2.004280e-20
 1.850000e+04     1.939583e-20
 1.950000e+04     1.856815e-20
 2.050000e+04     1.774040e-20
 2.150000e+04     1.699575e-20
 2.250000e+04     1.638039e-20
 2.350000e+04     1.590711e-20
 2.450000e+04     1.557145e-20
 2.550000e+04     1.536529e-20
 2.650000e+04     1.528593e-20
 2.750000e+04     1.533513e-20
 2.850000e+04     1.551324e-20
 2.950000e+04     1.581987e-20
 3.050000e+04     1.625495e-20
 3.150000e+04     1.681808e-20
 3.250000e+04     1.744032e-20
 3.350000e+04     1.793513e-20
 3.450000e+04     1.848558e-20
 3.550000e+04     1.900964e-20
 3.650000e+04     1.951907e-20
 3.750000e+04     2.000784e-20
 3.850000e+04     2.047786e-20
 3.950000e+04     2.092424e-20
 4.050000e+04     2.135515e-20
 4.150000e+04     2.179318e-20
 4.250000e+04     2.224567e-20
 4.350000e+04     2.270376e-20
 4.450000e+04     2.316026e-20
 4.550000e+04     2.361423e-20
 4.650000e+04     2.406652e-20
 4.750000e+04     2.451760e-20
 4.850000e+04     2.496743e-20
 4.950000e+04     2.541607e-20
 5.050000e+04     2.586356e-20
 5.150000e+04     2.630990e-20
 5.250000e+04     2.675516e-20
 5.350000e+04     2.719079e-20
 5.450000e+04     2.746310e-20
 5.550000e+04     2.784232e-20
 5.650000e+04     2.831329e-20
 5.750000e+04     2.894681e-20
 5.850000e+04     2.937353e-20
 5.950000e+04     2.970604e-20
 6.050000e+04     3.048827e-20
 6.150000e+04     3.325287e-20
 6.250000e+04     3.861025e-20
 6.350000e+04     4.179354e-20
 6.450000e+04     4.204005e-20
 6.550000e+04     4.181528e-20
 6.650010e+04     4.210794e-20
 6.750010e+04     4.221868e-20
 6.850010e+04     4.243201e-20
 6.950010e+04     4.305206e-20
 7.020000e+04     4.386922e-20
 7.100000e+04     4.447959e-20
 7.180000e+04     4.525730e-20
 7.260000e+04     4.622585e-20
 7.340000e+04     4.771988e-20
 7.420000e+04     4.996088e-20
 7.500000e+04     5.297533e-20
 7.580000e+04     5.697638e-20
 7.660000e+04     6.140016e-20
 7.740000e+04     6.529086e-20
 7.820000e+04     6.852052e-20
 7.900000e+04     7.118462e-20
 7.980000e+04     7.323418e-20
 8.060000e+04     7.446736e-20
 8.140000e+04     7.493921e-20
 8.220000e+04     7.475602e-20
 8.300000e+04     7.455543e-20
 8.380000e+04     7.446274e-20
 8.460000e+04     7.438454e-20
 8.540000e+04     7.439206e-20
 8.620000e+04     7.479977e-20
 8.700000e+04     7.525571e-20
 8.780000e+04     7.500778e-20
 8.860000e+04     7.390592e-20
 8.940000e+04     7.225015e-20
 9.020000e+04     7.018379e-20
 9.100000e+04     6.787753e-20
 9.180000e+04     6.542096e-20
 9.260000e+04     6.283760e-20
 9.340000e+04     6.013451e-20
 9.420000e+04     5.739666e-20
 9.500000e+04     5.471291e-20
 9.580000e+04     5.212617e-20
 9.660000e+04     4.990689e-20
 9.740000e+04     4.789911e-20
 9.820000e+04     4.579776e-20
 9.900000e+04     4.386154e-20
 9.980000e+04     4.213110e-20
 1.006000e+05     4.050666e-20
 1.020000e+05     3.828250e-20
 1.040000e+05     3.580355e-20
 1.060000e+05     3.441963e-20
 1.080000e+05     3.356953e-20
 1.100000e+05     3.393726e-20
 1.120000e+05     3.953359e-20
 1.140000e+05     5.055260e-20
 1.160000e+05     5.511425e-20
 1.180000e+05     5.483591e-20
 1.200000e+05     5.656688e-20
 1.220000e+05     5.791573e-20
 1.240000e+05     5.968276e-20
 1.260000e+05     6.238724e-20
 1.280000e+05     6.705113e-20
 1.300000e+05     6.973204e-20
 1.320000e+05     6.855268e-20
 1.340000e+05     6.575003e-20
 1.360000e+05     6.516778e-20
 1.380000e+05     6.238164e-20
 1.400000e+05     5.911679e-20
 1.420000e+05     5.698675e-20
 1.440000e+05     5.470281e-20
 1.460000e+05     5.253818e-20
 1.480000e+05     5.057712e-20
 1.500000e+05     4.885841e-20
 1.520000e+05     4.734961e-20
 1.540000e+05     4.584432e-20
 1.560000e+05     4.569144e-20
 1.580000e+05     4.501822e-20
 1.600000e+05     4.420440e-20
 1.620000e+05     4.397016e-20
 1.640000e+05     4.491844e-20
 1.660000e+05     4.716478e-20
 1.680000e+05     4.873602e-20
 1.700000e+05     5.139238e-20
 1.720000e+05     5.423485e-20
 1.740000e+05     5.616861e-20
 1.760000e+05     5.761250e-20
 1.780000e+05     5.799244e-20
 1.800000e+05     5.851283e-20
 1.820000e+05     5.865547e-20
 1.840000e+05     5.880325e-20
 1.860000e+05     5.909767e-20
 1.880000e+05     6.153019e-20
 1.900000e+05     6.237436e-20
 1.920000e+05     6.253612e-20
 1.940000e+05     6.243888e-20
 1.960000e+05     6.196831e-20
 1.980000e+05     6.203302e-20
 2.000000e+05     6.199879e-20
 2.020000e+05     6.175328e-20
 2.040000e+05     6.146385e-20
 2.060000e+05     6.141533e-20
 2.080000e+05     6.123168e-20
 2.100000e+05     6.095693e-20
 2.120000e+05     6.080940e-20
 2.140000e+05     6.084172e-20
 2.160000e+05     6.092406e-20
 2.180000e+05     6.112861e-20
 2.200000e+05     6.150687e-20
 2.220000e+05     6.202519e-20
 2.240000e+05     6.264622e-20
 2.260000e+05     6.334611e-20
 2.280000e+05     6.405761e-20
 2.300000e+05     6.471423e-20
 2.320000e+05     6.538457e-20
 2.340000e+05     6.616254e-20
 2.360000e+05     6.701717e-20
 2.380000e+05     6.790584e-20
 2.400000e+05     6.884103e-20
 2.420000e+05     6.984681e-20
 2.440000e+05     7.091226e-20
 2.460000e+05     7.201813e-20
 2.480000e+05     7.315021e-20
 2.500000e+05     7.429928e-20
 2.520000e+05     7.546465e-20
 2.540000e+05     7.664620e-20
 2.560000e+05     7.788115e-20
 2.580000e+05     7.936267e-20
 2.600000e+05     8.116189e-20
 2.620000e+05     8.272894e-20
 2.640000e+05     8.400560e-20
 2.660000e+05     8.525035e-20
 2.680000e+05     8.649282e-20
 2.700000e+05     8.775869e-20
 2.720000e+05     8.904254e-20
 2.740000e+05     9.037801e-20
 2.760000e+05     9.174472e-20
 2.780000e+05     9.310564e-20
 2.800000e+05     9.452055e-20
 2.820000e+05     9.618850e-20
 2.840000e+05     9.790801e-20
 2.860000e+05     9.942236e-20
 2.880000e+05     1.008806e-19
 2.900000e+05     1.023595e-19
 2.920000e+05     1.038977e-19
 2.940000e+05     1.054266e-19
 2.960000e+05     1.070360e-19
 2.980000e+05     1.086621e-19
 3.000000e+05     1.102960e-19
 3.020000e+05     1.119766e-19
 3.040000e+05     1.137018e-19
 3.060000e+05     1.154528e-19
 3.080000e+05     1.172580e-19
 3.100000e+05     1.190917e-19
 3.120000e+05     1.209682e-19
 3.140000e+05     1.229043e-19
 3.160000e+05     1.248690e-19
 3.180000e+05     1.268618e-19
 3.200000e+05     1.289089e-19
 3.220000e+05     1.310686e-19
 3.240000e+05     1.333438e-19
 3.260000e+05     1.357365e-19
 3.280000e+05     1.382388e-19
 3.300000e+05     1.408497e-19
 3.320000e+05     1.436814e-19
 3.340000e+05     1.479156e-19
 3.360000e+05     1.541109e-19
 3.380000e+05     1.584298e-19
 3.400000e+05     1.609579e-19
 3.420000e+05     1.632392e-19
 3.440000e+05     1.655293e-19
 3.460000e+05     1.684622e-19
 3.480000e+05     1.740748e-19
 3.500000e+05     1.814844e-19
 3.520000e+05     1.855561e-19
 3.540000e+05     1.878601e-19
 3.560000e+05     1.900253e-19
 3.580000e+05     1.923166e-19
 3.600000e+05     1.948194e-19
 3.620000e+05     1.962374e-19
 3.640000e+05     1.983267e-19
 3.660000e+05     2.010820e-19
 3.680000e+05     2.036472e-19
 3.700000e+05     2.062097e-19
 3.720000e+05     2.088100e-19
 3.740000e+05     2.115917e-19
 3.760000e+05     2.136255e-19
 3.780000e+05     2.162581e-19
 3.800000e+05     2.192641e-19
 3.820000e+05     2.221121e-19
 3.840000e+05     2.248563e-19
 3.860000e+05     2.275385e-19
 3.880000e+05     2.302127e-19
 3.900000e+05     2.328454e-19
 3.920000e+05     2.357253e-19
 4.320000e+05     2.940323e-19
 4.760000e+05     3.629972e-19
 5.250000e+05     4.439614e-19
 5.790000e+05     5.341305e-19
 6.390000e+05     6.343091e-19
 7.040000e+05     7.433658e-19
 7.760000e+05     9.250282e-19
 8.560000e+05     1.206778e-18
 9.430000e+05     1.580193e-18
 1.040000e+06     2.022594e-18
 1.147000e+06     2.482041e-18
 1.264000e+06     2.894932e-18
 1.394000e+06     3.209142e-18
 1.537000e+06     3.381026e-18
 1.694000e+06     3.395897e-18
 1.868000e+06     3.262393e-18
 2.059000e+06     3.009734e-18
 2.270000e+06     2.675451e-18
 2.503000e+06     2.299982e-18
 2.760000e+06     1.918638e-18
 3.043000e+06     1.558673e-18
 3.354000e+06     1.236908e-18
 3.698000e+06     9.601714e-19
