## EBL from Khaire & Srianand 2018; Q18 Model with alpha=-1.8 
## Column1:wavelength (Angstrom);  Column2:EBL specific intensity J_nu (erg/s/cm^2/Hz/Sr)
## ===========================================================================================
 1.000000e-08     3.508273e-39
 1.122019e-08     5.103106e-39
 1.258925e-08     7.286666e-39
 1.412538e-08     1.018681e-38
 1.584893e-08     1.395936e-38
 1.778279e-08     1.878606e-38
 1.995263e-08     2.487548e-38
 2.238721e-08     3.246578e-38
 2.511887e-08     4.182912e-38
 2.818382e-08     5.327638e-38
 3.162278e-08     6.716396e-38
 3.548135e-08     8.390058e-38
 3.981071e-08     1.039563e-37
 4.466837e-08     1.278732e-37
 5.011870e-08     1.562757e-37
 5.623413e-08     1.898864e-37
 6.309576e-08     2.295400e-37
 7.079456e-08     2.762021e-37
 7.943284e-08     3.309923e-37
 8.912505e-08     3.952052e-37
 1.000000e-07     4.703432e-37
 1.122019e-07     5.581453e-37
 1.258925e-07     6.606263e-37
 1.412538e-07     7.801254e-37
 1.584892e-07     9.193474e-37
 1.778279e-07     1.081435e-36
 1.995263e-07     1.270026e-36
 2.238721e-07     1.489335e-36
 2.511887e-07     1.744253e-36
 2.818382e-07     2.040441e-36
 3.162278e-07     2.384469e-36
 3.548136e-07     2.783946e-36
 3.981071e-07     3.247683e-36
 4.466837e-07     3.785912e-36
 5.011870e-07     4.410464e-36
 5.623413e-07     5.135078e-36
 6.309576e-07     5.975657e-36
 7.079456e-07     6.950623e-36
 7.943284e-07     8.081356e-36
 8.912505e-07     9.392589e-36
 1.000000e-06     1.091303e-35
 1.122019e-06     1.267592e-35
 1.258925e-06     1.471975e-35
 1.412538e-06     1.708921e-35
 1.584893e-06     1.983598e-35
 1.778279e-06     2.302003e-35
 1.995263e-06     2.671084e-35
 2.238721e-06     3.098886e-35
 2.511887e-06     3.594740e-35
 2.818382e-06     4.169449e-35
 3.162278e-06     4.835549e-35
 3.548136e-06     5.607549e-35
 3.981071e-06     6.502254e-35
 4.466837e-06     7.539176e-35
 5.011870e-06     8.740875e-35
 5.623413e-06     1.013354e-34
 6.309576e-06     1.174750e-34
 7.079456e-06     1.361786e-34
 7.943284e-06     1.578539e-34
 8.912505e-06     1.829721e-34
 1.000000e-05     2.120807e-34
 1.122019e-05     2.458129e-34
 1.258925e-05     2.849026e-34
 1.412538e-05     3.302014e-34
 1.584893e-05     3.826941e-34
 1.778279e-05     4.435237e-34
 1.995263e-05     5.140144e-34
 2.238721e-05     5.956989e-34
 2.511887e-05     6.903559e-34
 2.818382e-05     8.000438e-34
 3.162278e-05     9.271512e-34
 3.548135e-05     1.074443e-33
 3.981071e-05     1.245122e-33
 4.466837e-05     1.442906e-33
 5.011870e-05     1.672093e-33
 5.623413e-05     1.937676e-33
 6.309577e-05     2.245431e-33
 7.079457e-05     2.602049e-33
 7.943284e-05     3.015296e-33
 8.912505e-05     3.494156e-33
 1.000000e-04     4.049056e-33
 1.122018e-04     4.692059e-33
 1.258926e-04     5.436296e-33
 1.412538e-04     6.278875e-33
 1.584893e-04     7.249917e-33
 1.778279e-04     8.375942e-33
 1.995262e-04     9.684771e-33
 2.238722e-04     1.120810e-32
 2.511887e-04     1.298294e-32
 2.818383e-04     1.505285e-32
 3.162278e-04     1.746926e-32
 3.548134e-04     2.029286e-32
 3.981073e-04     2.359543e-32
 4.466837e-04     2.746187e-32
 5.011873e-04     3.199274e-32
 5.623413e-04     3.730714e-32
 6.309572e-04     4.354628e-32
 7.079460e-04     5.087777e-32
 7.943284e-04     5.950043e-32
 8.912510e-04     6.965054e-32
 1.000000e-03     8.160895e-32
 1.122018e-03     9.570954e-32
 1.258926e-03     1.123499e-31
 1.412538e-03     1.320028e-31
 1.584893e-03     1.552318e-31
 1.778279e-03     1.827085e-31
 1.995262e-03     2.152332e-31
 2.238722e-03     2.537610e-31
 2.511887e-03     2.994307e-31
 2.818383e-03     3.536022e-31
 3.162278e-03     4.178996e-31
 3.548133e-03     4.942622e-31
 3.981073e-03     5.850087e-31
 4.466837e-03     6.929094e-31
 5.011873e-03     8.212805e-31
 5.623413e-03     9.740971e-31
 6.309573e-03     1.156141e-30
 7.079460e-03     1.373202e-30
 7.943284e-03     1.632346e-30
 8.912510e-03     1.942302e-30
 1.000000e-02     2.313957e-30
 1.122019e-02     2.760989e-30
 1.258925e-02     3.300597e-30
 1.412538e-02     3.954343e-30
 1.584894e-02     4.748955e-30
 1.778279e-02     5.717181e-30
 1.995263e-02     6.898618e-30
 2.238721e-02     8.340447e-30
 2.511887e-02     1.009836e-29
 2.818385e-02     1.223749e-29
 3.162277e-02     1.483359e-29
 3.548136e-02     1.797471e-29
 3.981071e-02     2.176300e-29
 4.466837e-02     2.631752e-29
 5.011876e-02     3.177725e-29
 5.623413e-02     3.830511e-29
 6.309576e-02     4.609313e-29
 7.079456e-02     5.536785e-29
 7.943284e-02     6.639805e-29
 8.912515e-02     7.950258e-29
 1.000000e-01     9.506068e-29
 1.122019e-01     1.135379e-28
 1.258925e-01     1.348587e-28
 1.412538e-01     1.582438e-28
 1.584894e-01     1.833106e-28
 1.778279e-01     2.098118e-28
 1.995263e-01     2.375491e-28
 2.238721e-01     2.663479e-28
 2.511887e-01     2.960548e-28
 2.818385e-01     3.265367e-28
 3.162278e-01     3.576818e-28
 3.548135e-01     3.894020e-28
 3.981071e-01     4.216293e-28
 4.466837e-01     4.543175e-28
 5.011876e-01     4.874384e-28
 5.623413e-01     5.209799e-28
 6.309576e-01     5.548950e-28
 7.079456e-01     5.892529e-28
 7.943284e-01     6.240616e-28
 8.912515e-01     6.593388e-28
 1.000000e+00     6.951052e-28
 1.122019e+00     7.313784e-28
 1.258925e+00     7.681642e-28
 1.412538e+00     8.054500e-28
 1.584894e+00     8.431897e-28
 1.778279e+00     8.812876e-28
 1.995263e+00     9.195730e-28
 2.238721e+00     9.577604e-28
 2.511887e+00     9.953986e-28
 2.818385e+00     1.031793e-27
 3.162278e+00     1.065906e-27
 3.548136e+00     1.096229e-27
 3.981071e+00     1.120642e-27
 4.466837e+00     1.136298e-27
 5.011876e+00     1.139603e-27
 5.623413e+00     1.126447e-27
 6.309576e+00     1.092123e-27
 7.079456e+00     1.028052e-27
 7.943284e+00     9.480877e-28
 8.912516e+00     8.554786e-28
 1.000000e+01     7.592268e-28
 1.122019e+01     6.617497e-28
 1.258925e+01     5.663008e-28
 1.412538e+01     4.796281e-28
 1.584894e+01     4.028946e-28
 1.778279e+01     3.370164e-28
 1.995263e+01     2.815959e-28
 2.238721e+01     2.354941e-28
 2.511887e+01     1.974043e-28
 2.818385e+01     1.660183e-28
 3.162278e+01     1.401636e-28
 3.548135e+01     1.188055e-28
 3.981071e+01     1.011319e-28
 4.466837e+01     8.643971e-29
 5.011876e+01     7.419821e-29
 5.623413e+01     6.396642e-29
 6.309576e+01     5.538749e-29
 7.079456e+01     4.817839e-29
 7.943284e+01     4.211150e-29
 8.912515e+01     3.700015e-29
 1.000000e+02     3.269095e-29
 1.120000e+02     2.911232e-29
 1.250000e+02     2.618546e-29
 1.400000e+02     2.364669e-29
 1.550000e+02     2.173125e-29
 1.650000e+02     2.070983e-29
 1.750000e+02     1.986293e-29
 1.850000e+02     1.919461e-29
 1.900000e+02     1.900459e-29
 1.950000e+02     1.903515e-29
 2.000000e+02     1.953374e-29
 2.050000e+02     2.102347e-29
 2.100000e+02     2.456311e-29
 2.150000e+02     3.221947e-29
 2.180000e+02     4.028882e-29
 2.210000e+02     5.249967e-29
 2.240000e+02     7.072926e-29
 2.260000e+02     8.748924e-29
 2.270000e+02     9.761435e-29
 2.275000e+02     1.031759e-28
 2.278400e+02     1.071617e-28
 2.380000e+02     1.135692e-23
 2.500000e+02     1.523121e-23
 2.700000e+02     1.691017e-23
 2.900000e+02     1.816041e-23
 3.035000e+02     1.897227e-23
 3.037800e+02     1.934112e-23
 3.045000e+02     1.932371e-23
 3.060000e+02     1.932842e-23
 3.080000e+02     1.936400e-23
 3.100000e+02     1.943538e-23
 3.120000e+02     1.952621e-23
 3.150000e+02     1.967931e-23
 3.200000e+02     1.995420e-23
 3.250000e+02     2.024533e-23
 3.300000e+02     2.053212e-23
 3.400000e+02     2.111388e-23
 3.600000e+02     2.224359e-23
 3.800000e+02     2.334723e-23
 4.050000e+02     2.469512e-23
 4.250000e+02     2.574578e-23
 4.500000e+02     2.702092e-23
 4.650000e+02     2.777797e-23
 4.750000e+02     2.827964e-23
 4.820000e+02     2.862496e-23
 4.870000e+02     2.887170e-23
 4.910000e+02     2.906609e-23
 4.950000e+02     2.926192e-23
 4.980000e+02     2.940734e-23
 5.000000e+02     2.950463e-23
 5.020000e+02     2.960038e-23
 5.039800e+02     2.969906e-23
 5.100000e+02     3.563966e-23
 5.250000e+02     3.970372e-23
 5.600000e+02     4.194663e-23
 6.000000e+02     4.421665e-23
 6.500000e+02     4.743096e-23
 7.000000e+02     5.159053e-23
 7.500000e+02     5.738690e-23
 8.000000e+02     6.553353e-23
 8.300000e+02     7.195544e-23
 8.600000e+02     7.978703e-23
 8.800000e+02     8.587168e-23
 8.900000e+02     8.919834e-23
 8.960000e+02     9.129291e-23
 9.000000e+02     9.272737e-23
 9.030000e+02     9.382238e-23
 9.060000e+02     9.494151e-23
 9.090000e+02     9.607485e-23
 9.117800e+02     9.714421e-23
 9.300000e+02     8.867421e-22
 9.500000e+02     1.939859e-21
 9.750000e+02     3.963868e-21
 9.900000e+02     4.734329e-21
 1.005000e+03     5.804908e-21
 1.025000e+03     7.495157e-21
 1.045000e+03     8.865463e-21
 1.065000e+03     1.075604e-20
 1.085000e+03     1.259722e-20
 1.105000e+03     1.425937e-20
 1.125000e+03     1.604817e-20
 1.145000e+03     1.750802e-20
 1.165000e+03     1.918200e-20
 1.185000e+03     2.047904e-20
 1.205000e+03     2.179718e-20
 1.215600e+03     2.234933e-20
 1.215670e+03     2.541039e-20
 1.216000e+03     2.542366e-20
 1.218000e+03     2.549217e-20
 1.221000e+03     2.556589e-20
 1.225000e+03     2.561109e-20
 1.230000e+03     2.566194e-20
 1.240000e+03     2.616404e-20
 1.250000e+03     2.680298e-20
 1.265000e+03     2.768411e-20
 1.285000e+03     2.911161e-20
 1.305000e+03     3.023732e-20
 1.325000e+03     3.134854e-20
 1.345000e+03     3.285106e-20
 1.365000e+03     3.411399e-20
 1.385000e+03     3.511677e-20
 1.405000e+03     3.604378e-20
 1.425000e+03     3.689706e-20
 1.442000e+03     3.750060e-20
 1.455000e+03     3.820036e-20
 1.475000e+03     3.905443e-20
 1.517000e+03     4.041491e-20
 1.595000e+03     4.220816e-20
 1.672000e+03     4.393466e-20
 1.745000e+03     4.514954e-20
 1.825000e+03     4.626853e-20
 1.905000e+03     4.677680e-20
 1.984000e+03     4.726761e-20
 2.065000e+03     4.730419e-20
 2.135000e+03     4.720534e-20
 2.215000e+03     4.690490e-20
 2.295000e+03     4.655800e-20
 2.375000e+03     4.616414e-20
 2.455000e+03     4.573631e-20
 2.525000e+03     4.540813e-20
 2.605000e+03     4.464149e-20
 2.685000e+03     4.456611e-20
 2.765000e+03     4.437339e-20
 2.845000e+03     4.406492e-20
 2.950000e+03     4.383852e-20
 3.110000e+03     4.352256e-20
 3.270000e+03     4.310639e-20
 3.430000e+03     4.269300e-20
 3.590000e+03     4.229570e-20
 3.730000e+03     4.229374e-20
 3.890000e+03     4.445424e-20
 4.050000e+03     4.630911e-20
 4.210000e+03     4.949486e-20
 4.370000e+03     5.201627e-20
 4.530000e+03     5.420616e-20
 4.690000e+03     5.613650e-20
 4.850000e+03     5.742449e-20
 5.010000e+03     5.842376e-20
 5.170000e+03     5.926622e-20
 5.330000e+03     6.001385e-20
 5.490000e+03     6.065946e-20
 5.650000e+03     6.127864e-20
 5.810000e+03     6.190204e-20
 5.970000e+03     6.231243e-20
 6.130000e+03     6.276124e-20
 6.290000e+03     6.308555e-20
 6.450000e+03     6.337657e-20
 6.610000e+03     6.362543e-20
 6.770000e+03     6.390461e-20
 6.930000e+03     6.412365e-20
 7.090000e+03     6.428489e-20
 7.250000e+03     6.440824e-20
 7.410000e+03     6.454240e-20
 7.570000e+03     6.469947e-20
 7.730000e+03     6.492820e-20
 7.890000e+03     6.510183e-20
 8.050000e+03     6.522771e-20
 8.210000e+03     6.538542e-20
 8.370000e+03     6.551255e-20
 8.530000e+03     6.563692e-20
 8.690000e+03     6.580271e-20
 8.850000e+03     6.608606e-20
 9.010000e+03     6.632716e-20
 9.170000e+03     6.653569e-20
 9.330000e+03     6.692000e-20
 9.490000e+03     6.720998e-20
 9.650000e+03     6.748020e-20
 9.810000e+03     6.773587e-20
 9.970000e+03     6.802956e-20
 1.050000e+04     6.863387e-20
 1.150000e+04     6.884728e-20
 1.250000e+04     6.875898e-20
 1.350000e+04     6.854082e-20
 1.450000e+04     6.886694e-20
 1.550000e+04     6.891763e-20
 1.650000e+04     6.849471e-20
 1.750000e+04     6.792771e-20
 1.850000e+04     6.731952e-20
 1.950000e+04     6.673633e-20
 2.050000e+04     6.623144e-20
 2.150000e+04     6.585828e-20
 2.250000e+04     6.566498e-20
 2.350000e+04     6.569015e-20
 2.450000e+04     6.596397e-20
 2.550000e+04     6.650996e-20
 2.650000e+04     6.734606e-20
 2.750000e+04     6.848667e-20
 2.850000e+04     6.994367e-20
 2.950000e+04     7.155481e-20
 3.050000e+04     7.288626e-20
 3.150000e+04     7.439273e-20
 3.250000e+04     7.593388e-20
 3.350000e+04     7.751371e-20
 3.450000e+04     7.917140e-20
 3.550000e+04     8.087454e-20
 3.650000e+04     8.260132e-20
 3.750000e+04     8.434290e-20
 3.850000e+04     8.610522e-20
 3.950000e+04     8.789692e-20
 4.050000e+04     8.969899e-20
 4.150000e+04     9.151780e-20
 4.250000e+04     9.335652e-20
 4.350000e+04     9.521011e-20
 4.450000e+04     9.707282e-20
 4.550000e+04     9.893996e-20
 4.650000e+04     1.008104e-19
 4.750000e+04     1.026852e-19
 4.850000e+04     1.045634e-19
 4.950000e+04     1.064437e-19
 5.050000e+04     1.083241e-19
 5.150000e+04     1.102031e-19
 5.250000e+04     1.120793e-19
 5.350000e+04     1.138080e-19
 5.450000e+04     1.150873e-19
 5.550000e+04     1.168302e-19
 5.650000e+04     1.187307e-19
 5.750000e+04     1.211903e-19
 5.850000e+04     1.230270e-19
 5.950000e+04     1.246005e-19
 6.050000e+04     1.276667e-19
 6.150000e+04     1.368548e-19
 6.250000e+04     1.542995e-19
 6.350000e+04     1.634831e-19
 6.450000e+04     1.648977e-19
 6.550000e+04     1.658545e-19
 6.650010e+04     1.662464e-19
 6.750010e+04     1.674667e-19
 6.850010e+04     1.685598e-19
 6.950010e+04     1.711274e-19
 7.020000e+04     1.740235e-19
 7.100000e+04     1.765147e-19
 7.180000e+04     1.788720e-19
 7.260000e+04     1.826517e-19
 7.340000e+04     1.879974e-19
 7.420000e+04     1.953199e-19
 7.500000e+04     2.057973e-19
 7.580000e+04     2.198884e-19
 7.660000e+04     2.354758e-19
 7.740000e+04     2.492701e-19
 7.820000e+04     2.608201e-19
 7.900000e+04     2.707406e-19
 7.980000e+04     2.781824e-19
 8.060000e+04     2.823893e-19
 8.140000e+04     2.842159e-19
 8.220000e+04     2.842660e-19
 8.300000e+04     2.837769e-19
 8.380000e+04     2.837482e-19
 8.460000e+04     2.840721e-19
 8.540000e+04     2.847131e-19
 8.620000e+04     2.865593e-19
 8.700000e+04     2.886698e-19
 8.780000e+04     2.886139e-19
 8.860000e+04     2.860174e-19
 8.940000e+04     2.819038e-19
 9.020000e+04     2.770445e-19
 9.100000e+04     2.716533e-19
 9.180000e+04     2.659714e-19
 9.260000e+04     2.603919e-19
 9.340000e+04     2.548995e-19
 9.420000e+04     2.496207e-19
 9.500000e+04     2.446398e-19
 9.580000e+04     2.399342e-19
 9.660000e+04     2.362318e-19
 9.740000e+04     2.327657e-19
 9.820000e+04     2.284695e-19
 9.900000e+04     2.242647e-19
 9.980000e+04     2.200889e-19
 1.006000e+05     2.163813e-19
 1.020000e+05     2.103387e-19
 1.040000e+05     2.031011e-19
 1.060000e+05     1.992848e-19
 1.080000e+05     1.970014e-19
 1.100000e+05     1.966934e-19
 1.120000e+05     2.121513e-19
 1.140000e+05     2.457877e-19
 1.160000e+05     2.500397e-19
 1.180000e+05     2.503649e-19
 1.200000e+05     2.510551e-19
 1.220000e+05     2.527258e-19
 1.240000e+05     2.556316e-19
 1.260000e+05     2.622703e-19
 1.280000e+05     2.747359e-19
 1.300000e+05     2.815683e-19
 1.320000e+05     2.728781e-19
 1.340000e+05     2.702661e-19
 1.360000e+05     2.649044e-19
 1.380000e+05     2.607903e-19
 1.400000e+05     2.547388e-19
 1.420000e+05     2.515789e-19
 1.440000e+05     2.470317e-19
 1.460000e+05     2.419163e-19
 1.480000e+05     2.366463e-19
 1.500000e+05     2.320730e-19
 1.520000e+05     2.279193e-19
 1.540000e+05     2.243928e-19
 1.560000e+05     2.253202e-19
 1.580000e+05     2.245768e-19
 1.600000e+05     2.231092e-19
 1.620000e+05     2.224797e-19
 1.640000e+05     2.251830e-19
 1.660000e+05     2.309146e-19
 1.680000e+05     2.349442e-19
 1.700000e+05     2.410396e-19
 1.720000e+05     2.490239e-19
 1.740000e+05     2.542928e-19
 1.760000e+05     2.559127e-19
 1.780000e+05     2.572976e-19
 1.800000e+05     2.568566e-19
 1.820000e+05     2.566534e-19
 1.840000e+05     2.556389e-19
 1.860000e+05     2.557543e-19
 1.880000e+05     2.625548e-19
 1.900000e+05     2.647507e-19
 1.920000e+05     2.645868e-19
 1.940000e+05     2.635231e-19
 1.960000e+05     2.635515e-19
 1.980000e+05     2.631226e-19
 2.000000e+05     2.629759e-19
 2.020000e+05     2.631731e-19
 2.040000e+05     2.634665e-19
 2.060000e+05     2.641644e-19
 2.080000e+05     2.651000e-19
 2.100000e+05     2.661361e-19
 2.120000e+05     2.673191e-19
 2.140000e+05     2.686173e-19
 2.160000e+05     2.700864e-19
 2.180000e+05     2.717594e-19
 2.200000e+05     2.735805e-19
 2.220000e+05     2.755514e-19
 2.240000e+05     2.776787e-19
 2.260000e+05     2.799404e-19
 2.280000e+05     2.823460e-19
 2.300000e+05     2.848501e-19
 2.320000e+05     2.874505e-19
 2.340000e+05     2.901116e-19
 2.360000e+05     2.928690e-19
 2.380000e+05     2.957527e-19
 2.400000e+05     2.987371e-19
 2.420000e+05     3.018371e-19
 2.440000e+05     3.050509e-19
 2.460000e+05     3.083981e-19
 2.480000e+05     3.118599e-19
 2.500000e+05     3.154433e-19
 2.520000e+05     3.191272e-19
 2.540000e+05     3.229057e-19
 2.560000e+05     3.268986e-19
 2.580000e+05     3.316825e-19
 2.600000e+05     3.374564e-19
 2.620000e+05     3.425791e-19
 2.640000e+05     3.469213e-19
 2.660000e+05     3.509989e-19
 2.680000e+05     3.551532e-19
 2.700000e+05     3.597024e-19
 2.720000e+05     3.642008e-19
 2.740000e+05     3.687059e-19
 2.760000e+05     3.734419e-19
 2.780000e+05     3.783493e-19
 2.800000e+05     3.834189e-19
 2.820000e+05     3.892317e-19
 2.840000e+05     3.952736e-19
 2.860000e+05     4.007367e-19
 2.880000e+05     4.061143e-19
 2.900000e+05     4.114451e-19
 2.920000e+05     4.170740e-19
 2.940000e+05     4.228520e-19
 2.960000e+05     4.286680e-19
 2.980000e+05     4.345138e-19
 3.000000e+05     4.406092e-19
 3.020000e+05     4.468438e-19
 3.040000e+05     4.531617e-19
 3.060000e+05     4.595699e-19
 3.080000e+05     4.662227e-19
 3.100000e+05     4.730370e-19
 3.120000e+05     4.799562e-19
 3.140000e+05     4.870503e-19
 3.160000e+05     4.943817e-19
 3.180000e+05     5.018912e-19
 3.200000e+05     5.095706e-19
 3.220000e+05     5.175735e-19
 3.240000e+05     5.259168e-19
 3.260000e+05     5.346002e-19
 3.280000e+05     5.436291e-19
 3.300000e+05     5.530273e-19
 3.320000e+05     5.631156e-19
 3.340000e+05     5.775755e-19
 3.360000e+05     5.981119e-19
 3.380000e+05     6.124965e-19
 3.400000e+05     6.214923e-19
 3.420000e+05     6.304937e-19
 3.440000e+05     6.377789e-19
 3.460000e+05     6.469383e-19
 3.480000e+05     6.679312e-19
 3.500000e+05     6.936575e-19
 3.520000e+05     7.064924e-19
 3.540000e+05     7.141512e-19
 3.560000e+05     7.232482e-19
 3.580000e+05     7.295207e-19
 3.600000e+05     7.375286e-19
 3.620000e+05     7.467820e-19
 3.640000e+05     7.560293e-19
 3.660000e+05     7.653782e-19
 3.680000e+05     7.733949e-19
 3.700000e+05     7.829595e-19
 3.720000e+05     7.930958e-19
 3.740000e+05     8.028582e-19
 3.760000e+05     8.120203e-19
 3.780000e+05     8.210365e-19
 3.800000e+05     8.313994e-19
 3.820000e+05     8.422305e-19
 3.840000e+05     8.528031e-19
 3.860000e+05     8.628954e-19
 3.880000e+05     8.731990e-19
 3.900000e+05     8.842319e-19
 3.920000e+05     8.953066e-19
 4.320000e+05     1.125634e-18
 4.760000e+05     1.401746e-18
 5.250000e+05     1.723852e-18
 5.790000e+05     2.087779e-18
 6.390000e+05     2.497951e-18
 7.040000e+05     2.948228e-18
 7.760000e+05     3.650875e-18
 8.560000e+05     4.680794e-18
 9.430000e+05     6.031709e-18
 1.040000e+06     7.670657e-18
 1.147000e+06     9.456239e-18
 1.264000e+06     1.118923e-17
 1.394000e+06     1.268688e-17
 1.537000e+06     1.375667e-17
 1.694000e+06     1.428617e-17
 1.868000e+06     1.424270e-17
 2.059000e+06     1.366741e-17
 2.270000e+06     1.265744e-17
 2.503000e+06     1.134396e-17
 2.760000e+06     9.865583e-18
 3.043000e+06     8.349371e-18
 3.354000e+06     6.894636e-18
 3.698000e+06     5.561261e-18
