## EBL from Khaire & Srianand 2018; Q18 Model with alpha=-1.8 
## Column1:wavelength (Angstrom);  Column2:EBL specific intensity J_nu (erg/s/cm^2/Hz/Sr)
## ===========================================================================================
 1.000000e-08     9.444184e-37
 1.122019e-08     1.375206e-36
 1.258925e-08     1.981722e-36
 1.412538e-08     2.811296e-36
 1.584893e-08     3.918477e-36
 1.778279e-08     5.366038e-36
 1.995263e-08     7.226027e-36
 2.238721e-08     9.580960e-36
 2.511887e-08     1.252535e-35
 2.818382e-08     1.616726e-35
 3.162278e-08     2.063049e-35
 3.548135e-08     2.605683e-35
 3.981071e-08     3.260899e-35
 4.466837e-08     4.047421e-35
 5.011870e-08     4.986780e-35
 5.623413e-08     6.103842e-35
 6.309576e-08     7.427290e-35
 7.079456e-08     8.990271e-35
 7.943284e-08     1.083118e-34
 8.912505e-08     1.299438e-34
 1.000000e-07     1.553133e-34
 1.122019e-07     1.850160e-34
 1.258925e-07     2.197414e-34
 1.412538e-07     2.602903e-34
 1.584892e-07     3.075886e-34
 1.778279e-07     3.627119e-34
 1.995263e-07     4.269051e-34
 2.238721e-07     5.016106e-34
 2.511887e-07     5.885025e-34
 2.818382e-07     6.895183e-34
 3.162278e-07     8.069070e-34
 3.548136e-07     9.432723e-34
 3.981071e-07     1.101631e-33
 4.466837e-07     1.285485e-33
 5.011870e-07     1.498884e-33
 5.623413e-07     1.746531e-33
 6.309576e-07     2.033869e-33
 7.079456e-07     2.367207e-33
 7.943284e-07     2.753860e-33
 8.912505e-07     3.202297e-33
 1.000000e-06     3.722348e-33
 1.122019e-06     4.325388e-33
 1.258925e-06     5.024596e-33
 1.412538e-06     5.835271e-33
 1.584893e-06     6.775105e-33
 1.778279e-06     7.864629e-33
 1.995263e-06     9.127629e-33
 2.238721e-06     1.059164e-32
 2.511887e-06     1.228862e-32
 2.818382e-06     1.425554e-32
 3.162278e-06     1.653533e-32
 3.548136e-06     1.917765e-32
 3.981071e-06     2.224004e-32
 4.466837e-06     2.578928e-32
 5.011870e-06     2.990263e-32
 5.623413e-06     3.466975e-32
 6.309576e-06     4.019442e-32
 7.079456e-06     4.659689e-32
 7.943284e-06     5.401668e-32
 8.912505e-06     6.261518e-32
 1.000000e-05     7.257976e-32
 1.122019e-05     8.412723e-32
 1.258925e-05     9.750879e-32
 1.412538e-05     1.130161e-31
 1.584893e-05     1.309862e-31
 1.778279e-05     1.518104e-31
 1.995263e-05     1.759421e-31
 2.238721e-05     2.039060e-31
 2.511887e-05     2.363111e-31
 2.818382e-05     2.738620e-31
 3.162278e-05     3.173765e-31
 3.548135e-05     3.678011e-31
 3.981071e-05     4.262326e-31
 4.466837e-05     4.939434e-31
 5.011870e-05     5.724054e-31
 5.623413e-05     6.633272e-31
 6.309577e-05     7.686869e-31
 7.079457e-05     8.907750e-31
 7.943284e-05     1.032250e-30
 8.912505e-05     1.196188e-30
 1.000000e-04     1.386159e-30
 1.122018e-04     1.606292e-30
 1.258926e-04     1.861290e-30
 1.412538e-04     2.153568e-30
 1.584893e-04     2.489527e-30
 1.778279e-04     2.877128e-30
 1.995262e-04     3.325723e-30
 2.238722e-04     3.846206e-30
 2.511887e-04     4.451252e-30
 2.818383e-04     5.155672e-30
 3.162278e-04     5.976825e-30
 3.548134e-04     6.935120e-30
 3.981073e-04     8.054624e-30
 4.466837e-04     9.363741e-30
 5.011873e-04     1.089607e-29
 5.623413e-04     1.269137e-29
 6.309572e-04     1.479673e-29
 7.079460e-04     1.726800e-29
 7.943284e-04     2.017136e-29
 8.912510e-04     2.358544e-29
 1.000000e-03     2.760360e-29
 1.122018e-03     3.233675e-29
 1.258926e-03     3.791690e-29
 1.412538e-03     4.450089e-29
 1.584893e-03     5.227558e-29
 1.778279e-03     6.146354e-29
 1.995262e-03     7.232988e-29
 2.238722e-03     8.519070e-29
 2.511887e-03     1.004228e-28
 2.818383e-03     1.184759e-28
 3.162278e-03     1.398869e-28
 3.548133e-03     1.652964e-28
 3.981073e-03     1.954704e-28
 4.466837e-03     2.313231e-28
 5.011873e-03     2.739486e-28
 5.623413e-03     3.246562e-28
 6.309573e-03     3.850169e-28
 7.079460e-03     4.569234e-28
 7.943284e-03     5.426693e-28
 8.912510e-03     6.450598e-28
 1.000000e-02     7.675574e-28
 1.122019e-02     9.144726e-28
 1.258925e-02     1.091196e-27
 1.412538e-02     1.304481e-27
 1.584894e-02     1.562743e-27
 1.778279e-02     1.876384e-27
 1.995263e-02     2.258139e-27
 2.238721e-02     2.723390e-27
 2.511887e-02     3.290537e-27
 2.818385e-02     3.981353e-27
 3.162277e-02     4.821400e-27
 3.548136e-02     5.840585e-27
 3.981071e-02     7.073695e-27
 4.466837e-02     8.561301e-27
 5.011876e-02     1.035066e-26
 5.623413e-02     1.249698e-26
 6.309576e-02     1.506508e-26
 7.079456e-02     1.813109e-26
 7.943284e-02     2.178499e-26
 8.912515e-02     2.613317e-26
 1.000000e-01     3.130182e-26
 1.122019e-01     3.744252e-26
 1.258925e-01     4.464781e-26
 1.412538e-01     5.285002e-26
 1.584894e-01     6.195359e-26
 1.778279e-01     7.185295e-26
 1.995263e-01     8.244381e-26
 2.238721e-01     9.362880e-26
 2.511887e-01     1.053211e-25
 2.818385e-01     1.174451e-25
 3.162278e-01     1.299359e-25
 3.548135e-01     1.427401e-25
 3.981071e-01     1.558140e-25
 4.466837e-01     1.691238e-25
 5.011876e-01     1.826448e-25
 5.623413e-01     1.963601e-25
 6.309576e-01     2.102606e-25
 7.079456e-01     2.243434e-25
 7.943284e-01     2.386115e-25
 8.912515e-01     2.530723e-25
 1.000000e+00     2.677374e-25
 1.122019e+00     2.826216e-25
 1.258925e+00     2.977418e-25
 1.412538e+00     3.131175e-25
 1.584894e+00     3.287692e-25
 1.778279e+00     3.447186e-25
 1.995263e+00     3.609890e-25
 2.238721e+00     3.776041e-25
 2.511887e+00     3.945895e-25
 2.818385e+00     4.119729e-25
 3.162278e+00     4.297842e-25
 3.548136e+00     4.480584e-25
 3.981071e+00     4.668357e-25
 4.466837e+00     4.861654e-25
 5.011876e+00     5.061072e-25
 5.623413e+00     5.267355e-25
 6.309576e+00     5.480570e-25
 7.079456e+00     5.687827e-25
 7.943284e+00     5.909482e-25
 8.912516e+00     6.168659e-25
 1.000000e+01     6.488627e-25
 1.122019e+01     6.892868e-25
 1.258925e+01     7.405932e-25
 1.412538e+01     8.054647e-25
 1.584894e+01     8.869145e-25
 1.778279e+01     9.883653e-25
 1.995263e+01     1.113678e-24
 2.238721e+01     1.267096e-24
 2.511887e+01     1.453096e-24
 2.818385e+01     1.676075e-24
 3.162278e+01     1.939879e-24
 3.548135e+01     2.246909e-24
 3.981071e+01     2.597061e-24
 4.466837e+01     2.970456e-24
 5.011876e+01     3.411714e-24
 5.623413e+01     3.874534e-24
 6.309576e+01     4.422246e-24
 7.079456e+01     5.032161e-24
 7.943284e+01     5.697588e-24
 8.912515e+01     6.495590e-24
 1.000000e+02     7.441839e-24
 1.120000e+02     8.531230e-24
 1.250000e+02     9.719959e-24
 1.400000e+02     1.109812e-23
 1.550000e+02     1.244667e-23
 1.650000e+02     1.332308e-23
 1.750000e+02     1.418244e-23
 1.850000e+02     1.499429e-23
 1.900000e+02     1.540059e-23
 1.950000e+02     1.581470e-23
 2.000000e+02     1.624026e-23
 2.050000e+02     1.671051e-23
 2.100000e+02     1.731443e-23
 2.150000e+02     1.820288e-23
 2.180000e+02     1.897013e-23
 2.210000e+02     2.011252e-23
 2.240000e+02     2.168404e-23
 2.260000e+02     2.310707e-23
 2.270000e+02     2.399908e-23
 2.275000e+02     2.447872e-23
 2.278400e+02     2.481888e-23
 2.380000e+02     3.058317e-23
 2.500000e+02     3.744096e-23
 2.700000e+02     4.732168e-23
 2.900000e+02     5.735461e-23
 3.035000e+02     6.377104e-23
 3.037800e+02     9.146163e-23
 3.045000e+02     9.166664e-23
 3.060000e+02     9.213954e-23
 3.080000e+02     9.326273e-23
 3.100000e+02     9.391069e-23
 3.120000e+02     9.459465e-23
 3.150000e+02     9.559139e-23
 3.200000e+02     9.736033e-23
 3.250000e+02     9.872912e-23
 3.300000e+02     1.001635e-22
 3.400000e+02     1.027515e-22
 3.600000e+02     1.081225e-22
 3.800000e+02     1.134667e-22
 4.050000e+02     1.203958e-22
 4.250000e+02     1.271750e-22
 4.500000e+02     1.363265e-22
 4.650000e+02     1.421695e-22
 4.750000e+02     1.462530e-22
 4.820000e+02     1.499035e-22
 4.870000e+02     1.519869e-22
 4.910000e+02     1.536636e-22
 4.950000e+02     1.553657e-22
 4.980000e+02     1.566601e-22
 5.000000e+02     1.575279e-22
 5.020000e+02     1.583792e-22
 5.039800e+02     1.592118e-22
 5.100000e+02     1.621681e-22
 5.250000e+02     1.712210e-22
 5.600000e+02     1.896162e-22
 6.000000e+02     2.124463e-22
 6.500000e+02     2.425781e-22
 7.000000e+02     2.742161e-22
 7.500000e+02     3.082477e-22
 8.000000e+02     3.459637e-22
 8.300000e+02     3.705098e-22
 8.600000e+02     3.973830e-22
 8.800000e+02     4.179311e-22
 8.900000e+02     4.278816e-22
 8.960000e+02     4.340288e-22
 9.000000e+02     4.382254e-22
 9.030000e+02     4.428902e-22
 9.060000e+02     4.460922e-22
 9.090000e+02     4.493143e-22
 9.117800e+02     4.523186e-22
 9.300000e+02     6.259426e-22
 9.500000e+02     6.860112e-22
 9.750000e+02     9.881809e-22
 9.900000e+02     1.052988e-21
 1.005000e+03     1.236750e-21
 1.025000e+03     1.483905e-21
 1.045000e+03     1.752953e-21
 1.065000e+03     2.064485e-21
 1.085000e+03     2.435644e-21
 1.105000e+03     2.797359e-21
 1.125000e+03     3.229400e-21
 1.145000e+03     3.630994e-21
 1.165000e+03     4.094343e-21
 1.185000e+03     4.536102e-21
 1.205000e+03     4.993251e-21
 1.215600e+03     5.218093e-21
 1.215670e+03     5.348603e-21
 1.216000e+03     5.355024e-21
 1.218000e+03     5.392533e-21
 1.221000e+03     5.446844e-21
 1.225000e+03     5.517566e-21
 1.230000e+03     5.617008e-21
 1.240000e+03     5.837748e-21
 1.250000e+03     6.079703e-21
 1.265000e+03     6.498739e-21
 1.285000e+03     7.072729e-21
 1.305000e+03     7.673318e-21
 1.325000e+03     8.279096e-21
 1.345000e+03     8.903104e-21
 1.365000e+03     9.554954e-21
 1.385000e+03     1.018332e-20
 1.405000e+03     1.081055e-20
 1.425000e+03     1.143244e-20
 1.442000e+03     1.196433e-20
 1.455000e+03     1.239386e-20
 1.475000e+03     1.305780e-20
 1.517000e+03     1.437760e-20
 1.595000e+03     1.664947e-20
 1.672000e+03     1.886982e-20
 1.745000e+03     2.086299e-20
 1.825000e+03     2.296382e-20
 1.905000e+03     2.478557e-20
 1.984000e+03     2.640685e-20
 2.065000e+03     2.783697e-20
 2.135000e+03     2.884436e-20
 2.215000e+03     2.984421e-20
 2.295000e+03     3.075352e-20
 2.375000e+03     3.168737e-20
 2.455000e+03     3.263602e-20
 2.525000e+03     3.347661e-20
 2.605000e+03     3.443336e-20
 2.685000e+03     3.555856e-20
 2.765000e+03     3.659670e-20
 2.845000e+03     3.749250e-20
 2.950000e+03     3.883835e-20
 3.110000e+03     4.092213e-20
 3.270000e+03     4.286926e-20
 3.430000e+03     4.477029e-20
 3.590000e+03     4.660644e-20
 3.730000e+03     4.832248e-20
 3.890000e+03     5.210561e-20
 4.050000e+03     5.586560e-20
 4.210000e+03     6.192450e-20
 4.370000e+03     6.759685e-20
 4.530000e+03     7.318556e-20
 4.690000e+03     7.882509e-20
 4.850000e+03     8.392349e-20
 5.010000e+03     8.838255e-20
 5.170000e+03     9.294996e-20
 5.330000e+03     9.726834e-20
 5.490000e+03     1.015076e-19
 5.650000e+03     1.056651e-19
 5.810000e+03     1.097343e-19
 5.970000e+03     1.133786e-19
 6.130000e+03     1.169769e-19
 6.290000e+03     1.202065e-19
 6.450000e+03     1.233489e-19
 6.610000e+03     1.261995e-19
 6.770000e+03     1.290756e-19
 6.930000e+03     1.317459e-19
 7.090000e+03     1.342212e-19
 7.250000e+03     1.365677e-19
 7.410000e+03     1.388134e-19
 7.570000e+03     1.409800e-19
 7.730000e+03     1.432089e-19
 7.890000e+03     1.452837e-19
 8.050000e+03     1.472690e-19
 8.210000e+03     1.491625e-19
 8.370000e+03     1.510176e-19
 8.530000e+03     1.527439e-19
 8.690000e+03     1.544311e-19
 8.850000e+03     1.562327e-19
 9.010000e+03     1.579651e-19
 9.170000e+03     1.596447e-19
 9.330000e+03     1.613575e-19
 9.490000e+03     1.632502e-19
 9.650000e+03     1.648312e-19
 9.810000e+03     1.665145e-19
 9.970000e+03     1.681401e-19
 1.050000e+04     1.728869e-19
 1.150000e+04     1.790626e-19
 1.250000e+04     1.839552e-19
 1.350000e+04     1.875790e-19
 1.450000e+04     1.907208e-19
 1.550000e+04     1.940982e-19
 1.650000e+04     1.969047e-19
 1.750000e+04     1.978616e-19
 1.850000e+04     1.968591e-19
 1.950000e+04     1.942069e-19
 2.050000e+04     1.906498e-19
 2.150000e+04     1.865736e-19
 2.250000e+04     1.819225e-19
 2.350000e+04     1.762619e-19
 2.450000e+04     1.694530e-19
 2.550000e+04     1.632586e-19
 2.650000e+04     1.571495e-19
 2.750000e+04     1.516647e-19
 2.850000e+04     1.465961e-19
 2.950000e+04     1.417714e-19
 3.050000e+04     1.371391e-19
 3.150000e+04     1.326676e-19
 3.250000e+04     1.283205e-19
 3.350000e+04     1.240874e-19
 3.450000e+04     1.199849e-19
 3.550000e+04     1.160486e-19
 3.650000e+04     1.122560e-19
 3.750000e+04     1.087447e-19
 3.850000e+04     1.054459e-19
 3.950000e+04     1.021202e-19
 4.050000e+04     9.893420e-20
 4.150000e+04     9.573280e-20
 4.250000e+04     9.253671e-20
 4.350000e+04     8.956804e-20
 4.450000e+04     8.689009e-20
 4.550000e+04     8.442883e-20
 4.650000e+04     8.212401e-20
 4.750000e+04     7.999036e-20
 4.850000e+04     7.807006e-20
 4.950000e+04     7.638882e-20
 5.050000e+04     7.496032e-20
 5.150000e+04     7.380675e-20
 5.250000e+04     7.338582e-20
 5.350000e+04     7.403206e-20
 5.450000e+04     7.399417e-20
 5.550000e+04     7.449385e-20
 5.650000e+04     7.602053e-20
 5.750000e+04     7.926050e-20
 5.850000e+04     8.190115e-20
 5.950000e+04     8.383143e-20
 6.050000e+04     8.756328e-20
 6.150000e+04     9.490164e-20
 6.250000e+04     1.134167e-19
 6.350000e+04     1.278072e-19
 6.450000e+04     1.336212e-19
 6.550000e+04     1.358788e-19
 6.650010e+04     1.399011e-19
 6.750010e+04     1.432398e-19
 6.850010e+04     1.467419e-19
 6.950010e+04     1.517153e-19
 7.020000e+04     1.568854e-19
 7.100000e+04     1.622399e-19
 7.180000e+04     1.681006e-19
 7.260000e+04     1.742880e-19
 7.340000e+04     1.820232e-19
 7.420000e+04     1.930387e-19
 7.500000e+04     2.082670e-19
 7.580000e+04     2.271550e-19
 7.660000e+04     2.484835e-19
 7.740000e+04     2.684424e-19
 7.820000e+04     2.870033e-19
 7.900000e+04     3.033856e-19
 7.980000e+04     3.156999e-19
 8.060000e+04     3.245978e-19
 8.140000e+04     3.301427e-19
 8.220000e+04     3.340002e-19
 8.300000e+04     3.373660e-19
 8.380000e+04     3.405967e-19
 8.460000e+04     3.435626e-19
 8.540000e+04     3.471762e-19
 8.620000e+04     3.514588e-19
 8.700000e+04     3.545049e-19
 8.780000e+04     3.547581e-19
 8.860000e+04     3.525440e-19
 8.940000e+04     3.488759e-19
 9.020000e+04     3.443868e-19
 9.100000e+04     3.394155e-19
 9.180000e+04     3.342493e-19
 9.260000e+04     3.292491e-19
 9.340000e+04     3.242534e-19
 9.420000e+04     3.192501e-19
 9.500000e+04     3.143659e-19
 9.580000e+04     3.094947e-19
 9.660000e+04     3.051602e-19
 9.740000e+04     3.010704e-19
 9.820000e+04     2.965027e-19
 9.900000e+04     2.918303e-19
 9.980000e+04     2.872585e-19
 1.006000e+05     2.827883e-19
 1.020000e+05     2.758206e-19
 1.040000e+05     2.668605e-19
 1.060000e+05     2.612542e-19
 1.080000e+05     2.577686e-19
 1.100000e+05     2.565771e-19
 1.120000e+05     2.689084e-19
 1.140000e+05     2.976402e-19
 1.160000e+05     3.118164e-19
 1.180000e+05     3.143935e-19
 1.200000e+05     3.231377e-19
 1.220000e+05     3.319706e-19
 1.240000e+05     3.441398e-19
 1.260000e+05     3.599093e-19
 1.280000e+05     3.873143e-19
 1.300000e+05     4.102715e-19
 1.320000e+05     4.200326e-19
 1.340000e+05     4.193048e-19
 1.360000e+05     4.309821e-19
 1.380000e+05     4.352422e-19
 1.400000e+05     4.395785e-19
 1.420000e+05     4.479557e-19
 1.440000e+05     4.529552e-19
 1.460000e+05     4.583213e-19
 1.480000e+05     4.640905e-19
 1.500000e+05     4.696113e-19
 1.520000e+05     4.759974e-19
 1.540000e+05     4.821739e-19
 1.560000e+05     4.916670e-19
 1.580000e+05     5.002015e-19
 1.600000e+05     5.083064e-19
 1.620000e+05     5.169889e-19
 1.640000e+05     5.287475e-19
 1.660000e+05     5.442550e-19
 1.680000e+05     5.582093e-19
 1.700000e+05     5.742749e-19
 1.720000e+05     5.924426e-19
 1.740000e+05     6.073243e-19
 1.760000e+05     6.211424e-19
 1.780000e+05     6.311878e-19
 1.800000e+05     6.422192e-19
 1.820000e+05     6.520704e-19
 1.840000e+05     6.617214e-19
 1.860000e+05     6.723730e-19
 1.880000e+05     6.898558e-19
 1.900000e+05     7.025209e-19
 1.920000e+05     7.154389e-19
 1.940000e+05     7.279529e-19
 1.960000e+05     7.412924e-19
 1.980000e+05     7.568051e-19
 2.000000e+05     7.730856e-19
 2.020000e+05     7.895015e-19
 2.040000e+05     8.072350e-19
 2.060000e+05     8.255022e-19
 2.080000e+05     8.427558e-19
 2.100000e+05     8.621188e-19
 2.120000e+05     8.822379e-19
 2.140000e+05     9.024337e-19
 2.160000e+05     9.252009e-19
 2.180000e+05     9.500296e-19
 2.200000e+05     9.733353e-19
 2.220000e+05     9.983621e-19
 2.240000e+05     1.026303e-18
 2.260000e+05     1.053140e-18
 2.280000e+05     1.079702e-18
 2.300000e+05     1.109021e-18
 2.320000e+05     1.140001e-18
 2.340000e+05     1.170788e-18
 2.360000e+05     1.201973e-18
 2.380000e+05     1.235302e-18
 2.400000e+05     1.270152e-18
 2.420000e+05     1.304825e-18
 2.440000e+05     1.339748e-18
 2.460000e+05     1.377103e-18
 2.480000e+05     1.416299e-18
 2.500000e+05     1.455981e-18
 2.520000e+05     1.496147e-18
 2.540000e+05     1.537692e-18
 2.560000e+05     1.581093e-18
 2.580000e+05     1.626456e-18
 2.600000e+05     1.673512e-18
 2.620000e+05     1.720351e-18
 2.640000e+05     1.767239e-18
 2.660000e+05     1.815274e-18
 2.680000e+05     1.865233e-18
 2.700000e+05     1.916995e-18
 2.720000e+05     1.968937e-18
 2.740000e+05     2.020315e-18
 2.760000e+05     2.073087e-18
 2.780000e+05     2.128797e-18
 2.800000e+05     2.186887e-18
 2.820000e+05     2.246496e-18
 2.840000e+05     2.305319e-18
 2.860000e+05     2.363310e-18
 2.880000e+05     2.422220e-18
 2.900000e+05     2.483731e-18
 2.920000e+05     2.546494e-18
 2.940000e+05     2.610284e-18
 2.960000e+05     2.676088e-18
 2.980000e+05     2.741702e-18
 3.000000e+05     2.807402e-18
 3.020000e+05     2.875116e-18
 3.040000e+05     2.944959e-18
 3.060000e+05     3.015386e-18
 3.080000e+05     3.087493e-18
 3.100000e+05     3.159767e-18
 3.120000e+05     3.231110e-18
 3.140000e+05     3.304859e-18
 3.160000e+05     3.381880e-18
 3.180000e+05     3.459129e-18
 3.200000e+05     3.539117e-18
 3.220000e+05     3.621600e-18
 3.240000e+05     3.704402e-18
 3.260000e+05     3.789623e-18
 3.280000e+05     3.875010e-18
 3.300000e+05     3.961954e-18
 3.320000e+05     4.050507e-18
 3.340000e+05     4.149116e-18
 3.360000e+05     4.255821e-18
 3.380000e+05     4.357172e-18
 3.400000e+05     4.449803e-18
 3.420000e+05     4.542747e-18
 3.440000e+05     4.640740e-18
 3.460000e+05     4.740308e-18
 3.480000e+05     4.847887e-18
 3.500000e+05     4.960649e-18
 3.520000e+05     5.063173e-18
 3.540000e+05     5.162404e-18
 3.560000e+05     5.257821e-18
 3.580000e+05     5.351030e-18
 3.600000e+05     5.449437e-18
 3.620000e+05     5.545483e-18
 3.640000e+05     5.639500e-18
 3.660000e+05     5.735417e-18
 3.680000e+05     5.832287e-18
 3.700000e+05     5.930591e-18
 3.720000e+05     6.030519e-18
 3.740000e+05     6.130963e-18
 3.760000e+05     6.229836e-18
 3.780000e+05     6.331405e-18
 3.800000e+05     6.436461e-18
 3.820000e+05     6.541592e-18
 3.840000e+05     6.648486e-18
 3.860000e+05     6.756623e-18
 3.880000e+05     6.864824e-18
 3.900000e+05     6.974704e-18
 3.920000e+05     7.086726e-18
 4.320000e+05     9.492282e-18
 4.760000e+05     1.239075e-17
 5.250000e+05     1.577208e-17
 5.790000e+05     1.950667e-17
 6.390000e+05     2.345364e-17
 7.040000e+05     2.716576e-17
 7.760000e+05     3.031630e-17
 8.560000e+05     3.259771e-17
 9.430000e+05     3.380680e-17
 1.040000e+06     3.393261e-17
 1.147000e+06     3.303962e-17
 1.264000e+06     3.131094e-17
 1.394000e+06     2.893125e-17
 1.537000e+06     2.615342e-17
 1.694000e+06     2.319328e-17
 1.868000e+06     2.020566e-17
 2.059000e+06     1.735874e-17
 2.270000e+06     1.473032e-17
 2.503000e+06     1.237914e-17
 2.760000e+06     1.032925e-17
 3.043000e+06     8.578944e-18
 3.354000e+06     7.106955e-18
 3.698000e+06     5.873327e-18
